0.000000,0.001074
0.003906,0.001008
0.007812,0.000856
0.011719,0.000662
0.015625,0.000464
0.019531,0.000288
0.023438,0.000151
0.027344,0.000063
0.031250,0.000023
0.035156,0.000023
0.039062,0.000049
0.042969,0.000089
0.046875,0.000129
0.050781,0.000162
0.054688,0.000186
0.058594,0.000200
0.062500,0.000208
0.066406,0.000213
0.070312,0.000215
0.074219,0.000216
0.078125,0.000218
0.082031,0.000220
0.085938,0.000222
0.089844,0.000225
0.093750,0.000228
0.097656,0.000232
0.101562,0.000237
0.105469,0.000242
0.109375,0.000248
0.113281,0.000255
0.117188,0.000263
0.121094,0.000272
0.125000,0.000282
0.128906,0.000293
0.132812,0.000306
0.136719,0.000318
0.140625,0.000332
0.144531,0.000347
0.148438,0.000362
0.152344,0.000378
0.156250,0.000394
0.160156,0.000410
0.164062,0.000426
0.167969,0.000441
0.171875,0.000456
0.175781,0.000470
0.179688,0.000483
0.183594,0.000494
0.187500,0.000503
0.191406,0.000511
0.195312,0.000517
0.199219,0.000520
0.203125,0.000522
0.207031,0.000521
0.210938,0.000518
0.214844,0.000512
0.218750,0.000503
0.222656,0.000493
0.226562,0.000481
0.230469,0.000468
0.234375,0.000453
0.238281,0.000438
0.242188,0.000421
0.246094,0.000404
0.250000,0.000387
0.253906,0.000370
0.257812,0.000352
0.261719,0.000335
0.265625,0.000318
0.269531,0.000302
0.273438,0.000286
0.277344,0.000272
0.281250,0.000258
0.285156,0.000246
0.289062,0.000235
0.292969,0.000225
0.296875,0.000216
0.300781,0.000208
0.304688,0.000200
0.308594,0.000194
0.312500,0.000189
0.316406,0.000184
0.320312,0.000180
0.324219,0.000177
0.328125,0.000174
0.332031,0.000171
0.335938,0.000169
0.339844,0.000168
0.343750,0.000167
0.347656,0.000166
0.351562,0.000165
0.355469,0.000164
0.359375,0.000164
0.363281,0.000164
0.367188,0.000163
0.371094,0.000163
0.375000,0.000163
0.378906,0.000163
0.382812,0.000163
0.386719,0.000164
0.390625,0.000164
0.394531,0.000164
0.398438,0.000164
0.402344,0.000164
0.406250,0.000164
0.410156,0.000164
0.414062,0.000164
0.417969,0.000164
0.421875,0.000165
0.425781,0.000165
0.429688,0.000165
0.433594,0.000165
0.437500,0.000165
0.441406,0.000165
0.445312,0.000165
0.449219,0.000165
0.453125,0.000165
0.457031,0.000166
0.460938,0.000166
0.464844,0.000166
0.468750,0.000166
0.472656,0.000166
0.476562,0.000166
0.480469,0.000166
0.484375,0.000166
0.488281,0.000166
0.492188,0.000167
0.496094,0.000167
0.500000,0.000168
0.503906,0.000168
0.507812,0.000169
0.511719,0.000170
0.515625,0.000171
0.519531,0.000173
0.523438,0.000176
0.527344,0.000180
0.531250,0.000185
0.535156,0.000191
0.539062,0.000199
0.542969,0.000208
0.546875,0.000218
0.550781,0.000230
0.554688,0.000243
0.558594,0.000258
0.562500,0.000275
0.566406,0.000292
0.570312,0.000308
0.574219,0.000324
0.578125,0.000339
0.582031,0.000351
0.585938,0.000362
0.589844,0.000369
0.593750,0.000373
0.597656,0.000374
0.601562,0.000371
0.605469,0.000365
0.609375,0.000355
0.613281,0.000341
0.617188,0.000326
0.621094,0.000310
0.625000,0.000293
0.628906,0.000276
0.632812,0.000259
0.636719,0.000243
0.640625,0.000229
0.644531,0.000216
0.648438,0.000204
0.652344,0.000195
0.656250,0.000186
0.660156,0.000180
0.664062,0.000174
0.667969,0.000170
0.671875,0.000167
0.675781,0.000163
0.679688,0.000159
0.683594,0.000152
0.687500,0.000140
0.691406,0.000123
0.695312,0.000099
0.699219,0.000073
0.703125,0.000049
0.707031,0.000039
0.710938,0.000053
0.714844,0.000102
0.718750,0.000194
0.722656,0.000329
0.726562,0.000502
0.730469,0.000690
0.734375,0.000857
0.738281,0.000967
0.742188,0.000996
0.746094,0.000934
0.750000,0.000773
0.753906,0.000577
0.757812,0.000379
0.761719,0.000179
0.765625,-0.000004
0.769531,-0.000156
0.773438,-0.000272
0.777344,-0.000350
0.781250,-0.000391
0.785156,-0.000400
0.789062,-0.000384
0.792969,-0.000351
0.796875,-0.000310
0.800781,-0.000267
0.804688,-0.000228
0.808594,-0.000196
0.812500,-0.000171
0.816406,-0.000154
0.820312,-0.000142
0.824219,-0.000134
0.828125,-0.000128
0.832031,-0.000124
0.835938,-0.000121
0.839844,-0.000117
0.843750,-0.000114
0.847656,-0.000110
0.851562,-0.000107
0.855469,-0.000102
0.859375,-0.000098
0.863281,-0.000093
0.867188,-0.000088
0.871094,-0.000082
0.875000,-0.000075
0.878906,-0.000068
0.882812,-0.000060
0.886719,-0.000052
0.890625,-0.000043
0.894531,-0.000033
0.898438,-0.000023
0.902344,-0.000011
0.906250,0.000001
0.910156,0.000013
0.914062,0.000027
0.917969,0.000041
0.921875,0.000056
0.925781,0.000071
0.929688,0.000087
0.933594,0.000104
0.937500,0.000121
0.941406,0.000138
0.945312,0.000155
0.949219,0.000173
0.953125,0.000190
0.957031,0.000207
0.960938,0.000224
0.964844,0.000240
0.968750,0.000255
0.972656,0.000269
0.976562,0.000283
0.980469,0.000295
0.984375,0.000306
0.988281,0.000315
0.992188,0.000324
0.996094,0.000330
1.000000,0.000335
1.003906,0.000338
1.007812,0.000340
1.011719,0.000339
1.015625,0.000337
1.019531,0.000333
1.023438,0.000327
1.027344,0.000320
1.031250,0.000311
1.035156,0.000301
1.039062,0.000290
1.042969,0.000277
1.046875,0.000263
1.050781,0.000249
1.054688,0.000234
1.058594,0.000218
1.062500,0.000201
1.066406,0.000185
1.070312,0.000168
1.074219,0.000151
1.078125,0.000134
1.082031,0.000118
1.085938,0.000102
1.089844,0.000087
1.093750,0.000072
1.097656,0.000058
1.101562,0.000044
1.105469,0.000032
1.109375,0.000020
1.113281,0.000009
1.117188,-0.000001
1.121094,-0.000011
1.125000,-0.000019
1.128906,-0.000027
1.132812,-0.000034
1.136719,-0.000040
1.140625,-0.000046
1.144531,-0.000050
1.148438,-0.000055
1.152344,-0.000058
1.156250,-0.000061
1.160156,-0.000064
1.164062,-0.000066
1.167969,-0.000068
1.171875,-0.000069
1.175781,-0.000070
1.179688,-0.000071
1.183594,-0.000071
1.187500,-0.000071
1.191406,-0.000071
1.195312,-0.000071
1.199219,-0.000071
1.203125,-0.000070
1.207031,-0.000070
1.210938,-0.000069
1.214844,-0.000068
1.218750,-0.000067
1.222656,-0.000066
1.226562,-0.000065
1.230469,-0.000064
1.234375,-0.000063
1.238281,-0.000062
1.242188,-0.000061
1.246094,-0.000060
1.250000,-0.000059
1.253906,-0.000058
1.257812,-0.000057
1.261719,-0.000056
1.265625,-0.000054
1.269531,-0.000053
1.273438,-0.000052
1.277344,-0.000051
1.281250,-0.000050
1.285156,-0.000049
1.289062,-0.000048
1.292969,-0.000047
1.296875,-0.000046
1.300781,-0.000045
1.304688,-0.000044
1.308594,-0.000043
1.312500,-0.000042
1.316406,-0.000041
1.320312,-0.000040
1.324219,-0.000039
1.328125,-0.000037
1.332031,-0.000036
1.335938,-0.000035
1.339844,-0.000035
1.343750,-0.000034
1.347656,-0.000033
1.351562,-0.000032
1.355469,-0.000031
1.359375,-0.000030
1.363281,-0.000029
1.367188,-0.000028
1.371094,-0.000027
1.375000,-0.000026
1.378906,-0.000025
1.382812,-0.000024
1.386719,-0.000023
1.390625,-0.000021
1.394531,-0.000020
1.398438,-0.000019
1.402344,-0.000017
1.406250,-0.000016
1.410156,-0.000014
1.414062,-0.000012
1.417969,-0.000009
1.421875,-0.000006
1.425781,-0.000002
1.429688,0.000003
1.433594,0.000009
1.437500,0.000016
1.441406,0.000023
1.445312,0.000032
1.449219,0.000042
1.453125,0.000053
1.457031,0.000065
1.460938,0.000078
1.464844,0.000092
1.468750,0.000107
1.472656,0.000123
1.476562,0.000140
1.480469,0.000158
1.484375,0.000175
1.488281,0.000192
1.492188,0.000208
1.496094,0.000223
1.500000,0.000236
1.503906,0.000247
1.507812,0.000257
1.511719,0.000263
1.515625,0.000268
1.519531,0.000269
1.523438,0.000268
1.527344,0.000264
1.531250,0.000257
1.535156,0.000247
1.539062,0.000235
1.542969,0.000222
1.546875,0.000207
1.550781,0.000191
1.554688,0.000175
1.558594,0.000158
1.562500,0.000142
1.566406,0.000125
1.570312,0.000110
1.574219,0.000095
1.578125,0.000081
1.582031,0.000069
1.585938,0.000057
1.589844,0.000047
1.593750,0.000038
1.597656,0.000031
1.601562,0.000025
1.605469,0.000020
1.609375,0.000016
1.613281,0.000013
1.617188,0.000010
1.621094,0.000007
1.625000,0.000003
1.628906,-0.000002
1.632812,-0.000009
1.636719,-0.000019
1.640625,-0.000033
1.644531,-0.000053
1.648438,-0.000077
1.652344,-0.000103
1.656250,-0.000128
1.660156,-0.000146
1.664062,-0.000150
1.667969,-0.000137
1.671875,-0.000096
1.675781,-0.000024
1.679688,0.000085
1.683594,0.000226
1.687500,0.000394
1.691406,0.000580
1.695312,0.000767
1.699219,0.000931
1.703125,0.001047
1.707031,0.001096
1.710938,0.001071
1.714844,0.000976
1.718750,0.000821
1.722656,0.000629
1.726562,0.000427
1.730469,0.000231
1.734375,0.000054
1.738281,-0.000094
1.742188,-0.000207
1.746094,-0.000284
1.750000,-0.000325
1.753906,-0.000334
1.757812,-0.000320
1.761719,-0.000289
1.765625,-0.000249
1.769531,-0.000206
1.773438,-0.000166
1.777344,-0.000132
1.781250,-0.000105
1.785156,-0.000085
1.789062,-0.000071
1.792969,-0.000061
1.796875,-0.000055
1.800781,-0.000051
1.804688,-0.000048
1.808594,-0.000045
1.812500,-0.000043
1.816406,-0.000040
1.820312,-0.000037
1.824219,-0.000033
1.828125,-0.000030
1.832031,-0.000026
1.835938,-0.000022
1.839844,-0.000017
1.843750,-0.000012
1.847656,-0.000006
1.851562,0.000000
1.855469,0.000007
1.859375,0.000014
1.863281,0.000022
1.867188,0.000031
1.871094,0.000040
1.875000,0.000050
1.878906,0.000061
1.882812,0.000073
1.886719,0.000085
1.890625,0.000098
1.894531,0.000111
1.898438,0.000125
1.902344,0.000140
1.906250,0.000155
1.910156,0.000171
1.914062,0.000187
1.917969,0.000204
1.921875,0.000220
1.925781,0.000237
1.929688,0.000253
1.933594,0.000270
1.937500,0.000286
1.941406,0.000302
1.945312,0.000317
1.949219,0.000331
1.953125,0.000345
1.957031,0.000357
1.960938,0.000369
1.964844,0.000379
1.968750,0.000388
1.972656,0.000395
1.976562,0.000401
1.980469,0.000406
1.984375,0.000409
1.988281,0.000410
1.992188,0.000409
1.996094,0.000407
2.000000,0.000403
2.003906,0.000397
2.007812,0.000390
2.011719,0.000381
2.015625,0.000371
2.019531,0.000360
2.023438,0.000348
2.027344,0.000334
2.031250,0.000320
2.035156,0.000305
2.039062,0.000289
2.042969,0.000272
2.046875,0.000255
2.050781,0.000238
2.054688,0.000221
2.058594,0.000203
2.062500,0.000186
2.066406,0.000168
2.070312,0.000151
2.074219,0.000135
2.078125,0.000119
2.082031,0.000104
2.085938,0.000090
2.089844,0.000076
2.093750,0.000063
2.097656,0.000050
2.101562,0.000039
2.105469,0.000028
2.109375,0.000018
2.113281,0.000009
2.117188,0.000000
2.121094,-0.000008
2.125000,-0.000015
2.128906,-0.000021
2.132812,-0.000026
2.136719,-0.000031
2.140625,-0.000036
2.144531,-0.000040
2.148438,-0.000043
2.152344,-0.000046
2.156250,-0.000049
2.160156,-0.000051
2.164062,-0.000053
2.167969,-0.000054
2.171875,-0.000056
2.175781,-0.000057
2.179688,-0.000057
2.183594,-0.000058
2.187500,-0.000058
2.191406,-0.000059
2.195312,-0.000059
2.199219,-0.000059
2.203125,-0.000059
2.207031,-0.000059
2.210938,-0.000059
2.214844,-0.000059
2.218750,-0.000058
2.222656,-0.000058
2.226562,-0.000058
2.230469,-0.000057
2.234375,-0.000057
2.238281,-0.000056
2.242188,-0.000056
2.246094,-0.000055
2.250000,-0.000055
2.253906,-0.000054
2.257812,-0.000054
2.261719,-0.000053
2.265625,-0.000053
2.269531,-0.000052
2.273438,-0.000052
2.277344,-0.000051
2.281250,-0.000051
2.285156,-0.000050
2.289062,-0.000050
2.292969,-0.000050
2.296875,-0.000049
2.300781,-0.000049
2.304688,-0.000048
2.308594,-0.000048
2.312500,-0.000047
2.316406,-0.000047
2.320312,-0.000047
2.324219,-0.000046
2.328125,-0.000046
2.332031,-0.000045
2.335938,-0.000045
2.339844,-0.000044
2.343750,-0.000044
2.347656,-0.000044
2.351562,-0.000043
2.355469,-0.000043
2.359375,-0.000043
2.363281,-0.000042
2.367188,-0.000042
2.371094,-0.000042
2.375000,-0.000041
2.378906,-0.000041
2.382812,-0.000041
2.386719,-0.000040
2.390625,-0.000040
2.394531,-0.000039
2.398438,-0.000038
2.402344,-0.000037
2.406250,-0.000036
2.410156,-0.000035
2.414062,-0.000034
2.417969,-0.000032
2.421875,-0.000030
2.425781,-0.000028
2.429688,-0.000025
2.433594,-0.000021
2.437500,-0.000017
2.441406,-0.000012
2.445312,-0.000005
2.449219,0.000002
2.453125,0.000010
2.457031,0.000020
2.460938,0.000031
2.464844,0.000042
2.468750,0.000055
2.472656,0.000069
2.476562,0.000084
2.480469,0.000099
2.484375,0.000115
2.488281,0.000132
2.492188,0.000149
2.496094,0.000165
2.500000,0.000182
2.503906,0.000197
2.507812,0.000210
2.511719,0.000222
2.515625,0.000232
2.519531,0.000240
2.523438,0.000245
2.527344,0.000248
2.531250,0.000248
2.535156,0.000245
2.539062,0.000240
2.542969,0.000233
2.546875,0.000223
2.550781,0.000211
2.554688,0.000197
2.558594,0.000182
2.562500,0.000166
2.566406,0.000149
2.570312,0.000131
2.574219,0.000114
2.578125,0.000097
2.582031,0.000080
2.585938,0.000064
2.589844,0.000050
2.593750,0.000036
2.597656,0.000023
2.601562,0.000012
2.605469,0.000002
2.609375,-0.000008
2.613281,-0.000016
2.617188,-0.000023
2.621094,-0.000028
2.625000,-0.000033
2.628906,-0.000037
2.632812,-0.000040
2.636719,-0.000043
2.640625,-0.000047
2.644531,-0.000051
2.648438,-0.000058
2.652344,-0.000067
2.656250,-0.000080
2.660156,-0.000097
2.664062,-0.000119
2.667969,-0.000144
2.671875,-0.000170
2.675781,-0.000194
2.679688,-0.000211
2.683594,-0.000214
2.687500,-0.000200
2.691406,-0.000161
2.695312,-0.000092
2.699219,0.000011
2.703125,0.000146
2.707031,0.000308
2.710938,0.000489
2.714844,0.000678
2.718750,0.000855
2.722656,0.000994
2.726562,0.001076
2.730469,0.001089
2.734375,0.001032
2.738281,0.000910
2.742188,0.000739
2.746094,0.000541
2.750000,0.000338
2.753906,0.000149
2.757812,-0.000015
2.761719,-0.000145
2.765625,-0.000237
2.769531,-0.000293
2.773438,-0.000315
2.777344,-0.000311
2.781250,-0.000289
2.785156,-0.000255
2.789062,-0.000215
2.792969,-0.000175
2.796875,-0.000138
2.800781,-0.000108
2.804688,-0.000086
2.808594,-0.000071
2.812500,-0.000061
2.816406,-0.000055
2.820312,-0.000051
2.824219,-0.000048
2.828125,-0.000045
2.832031,-0.000043
2.835938,-0.000041
2.839844,-0.000039
2.843750,-0.000036
2.847656,-0.000033
2.851562,-0.000030
2.855469,-0.000026
2.859375,-0.000022
2.863281,-0.000018
2.867188,-0.000013
2.871094,-0.000007
2.875000,-0.000001
2.878906,0.000006
2.882812,0.000013
2.886719,0.000021
2.890625,0.000030
2.894531,0.000040
2.898438,0.000050
2.902344,0.000061
2.906250,0.000073
2.910156,0.000085
2.914062,0.000098
2.917969,0.000112
2.921875,0.000126
2.925781,0.000141
2.929688,0.000156
2.933594,0.000172
2.937500,0.000188
2.941406,0.000204
2.945312,0.000220
2.949219,0.000236
2.953125,0.000252
2.957031,0.000268
2.960938,0.000283
2.964844,0.000298
2.968750,0.000312
2.972656,0.000325
2.976562,0.000336
2.980469,0.000347
2.984375,0.000357
2.988281,0.000365
2.992188,0.000371
2.996094,0.000376
3.000000,0.000380
3.003906,0.000382
3.007812,0.000382
3.011719,0.000381
3.015625,0.000377
3.019531,0.000372
3.023438,0.000365
3.027344,0.000357
3.031250,0.000348
3.035156,0.000337
3.039062,0.000324
3.042969,0.000311
3.046875,0.000297
3.050781,0.000282
3.054688,0.000266
3.058594,0.000249
3.062500,0.000232
3.066406,0.000215
3.070312,0.000197
3.074219,0.000179
3.078125,0.000161
3.082031,0.000144
3.085938,0.000126
3.089844,0.000110
3.093750,0.000093
3.097656,0.000078
3.101562,0.000063
3.105469,0.000048
3.109375,0.000035
3.113281,0.000022
3.117188,0.000010
3.121094,-0.000001
3.125000,-0.000012
3.128906,-0.000022
3.132812,-0.000030
3.136719,-0.000039
3.140625,-0.000046
3.144531,-0.000053
3.148438,-0.000059
3.152344,-0.000064
3.156250,-0.000069
3.160156,-0.000073
3.164062,-0.000076
3.167969,-0.000080
3.171875,-0.000082
3.175781,-0.000085
3.179688,-0.000087
3.183594,-0.000088
3.187500,-0.000090
3.191406,-0.000091
3.195312,-0.000092
3.199219,-0.000093
3.203125,-0.000094
3.207031,-0.000094
3.210938,-0.000095
3.214844,-0.000095
3.218750,-0.000095
3.222656,-0.000095
3.226562,-0.000095
3.230469,-0.000095
3.234375,-0.000095
3.238281,-0.000094
3.242188,-0.000094
3.246094,-0.000093
3.250000,-0.000093
3.253906,-0.000093
3.257812,-0.000092
3.261719,-0.000092
3.265625,-0.000092
3.269531,-0.000091
3.273438,-0.000091
3.277344,-0.000090
3.281250,-0.000090
3.285156,-0.000090
3.289062,-0.000089
3.292969,-0.000089
3.296875,-0.000089
3.300781,-0.000088
3.304688,-0.000088
3.308594,-0.000087
3.312500,-0.000087
3.316406,-0.000087
3.320312,-0.000086
3.324219,-0.000086
3.328125,-0.000085
3.332031,-0.000085
3.335938,-0.000085
3.339844,-0.000084
3.343750,-0.000084
3.347656,-0.000083
3.351562,-0.000083
3.355469,-0.000083
3.359375,-0.000082
3.363281,-0.000082
3.367188,-0.000082
3.371094,-0.000081
3.375000,-0.000081
3.378906,-0.000081
3.382812,-0.000080
3.386719,-0.000080
3.390625,-0.000080
3.394531,-0.000079
3.398438,-0.000079
3.402344,-0.000078
3.406250,-0.000077
3.410156,-0.000077
3.414062,-0.000076
3.417969,-0.000075
3.421875,-0.000074
3.425781,-0.000072
3.429688,-0.000071
3.433594,-0.000069
3.437500,-0.000066
3.441406,-0.000063
3.445312,-0.000059
3.449219,-0.000055
3.453125,-0.000049
3.457031,-0.000043
3.460938,-0.000035
3.464844,-0.000027
3.468750,-0.000018
3.472656,-0.000007
3.476562,0.000004
3.480469,0.000017
3.484375,0.000031
3.488281,0.000046
3.492188,0.000062
3.496094,0.000079
3.500000,0.000097
3.503906,0.000114
3.507812,0.000130
3.511719,0.000146
3.515625,0.000161
3.519531,0.000174
3.523438,0.000185
3.527344,0.000194
3.531250,0.000201
3.535156,0.000206
3.539062,0.000208
3.542969,0.000208
3.546875,0.000205
3.550781,0.000200
3.554688,0.000192
3.558594,0.000182
3.562500,0.000170
3.566406,0.000155
3.570312,0.000140
3.574219,0.000123
3.578125,0.000106
3.582031,0.000089
3.585938,0.000072
3.589844,0.000055
3.593750,0.000039
3.597656,0.000024
3.601562,0.000010
3.605469,-0.000003
3.609375,-0.000015
3.613281,-0.000025
3.617188,-0.000035
3.621094,-0.000043
3.625000,-0.000050
3.628906,-0.000055
3.632812,-0.000060
3.636719,-0.000065
3.640625,-0.000068
3.644531,-0.000071
3.648438,-0.000075
3.652344,-0.000079
3.656250,-0.000085
3.660156,-0.000093
3.664062,-0.000103
3.667969,-0.000118
3.671875,-0.000138
3.675781,-0.000163
3.679688,-0.000190
3.683594,-0.000214
3.687500,-0.000232
3.691406,-0.000238
3.695312,-0.000227
3.699219,-0.000193
3.703125,-0.000131
3.707031,-0.000037
3.710938,0.000091
3.714844,0.000249
3.718750,0.000428
3.722656,0.000617
3.726562,0.000796
3.730469,0.000940
3.734375,0.001030
3.738281,0.001053
3.742188,0.001005
3.746094,0.000891
3.750000,0.000724
3.753906,0.000526
3.757812,0.000323
3.761719,0.000132
3.765625,-0.000034
3.769531,-0.000168
3.773438,-0.000264
3.777344,-0.000324
3.781250,-0.000351
3.785156,-0.000349
3.789062,-0.000327
3.792969,-0.000292
3.796875,-0.000251
3.800781,-0.000209
3.804688,-0.000171
3.808594,-0.000141
3.812500,-0.000118
3.816406,-0.000102
3.820312,-0.000091
3.824219,-0.000083
3.828125,-0.000078
3.832031,-0.000075
3.835938,-0.000072
3.839844,-0.000070
3.843750,-0.000067
3.847656,-0.000064
3.851562,-0.000061
3.855469,-0.000058
3.859375,-0.000055
3.863281,-0.000050
3.867188,-0.000046
3.871094,-0.000041
3.875000,-0.000036
3.878906,-0.000030
3.882812,-0.000023
3.886719,-0.000016
3.890625,-0.000008
3.894531,0.000001
3.898438,0.000010
3.902344,0.000020
3.906250,0.000030
3.910156,0.000042
3.914062,0.000054
3.917969,0.000067
3.921875,0.000080
3.925781,0.000094
3.929688,0.000109
3.933594,0.000124
3.937500,0.000140
3.941406,0.000156
3.945312,0.000172
3.949219,0.000189
3.953125,0.000205
3.957031,0.000222
3.960938,0.000238
3.964844,0.000254
3.968750,0.000270
3.972656,0.000285
3.976562,0.000300
3.980469,0.000313
3.984375,0.000326
3.988281,0.000337
3.992188,0.000348
3.996094,0.000356
4.000000,0.000364
4.003906,0.000370
4.007812,0.000374
4.011719,0.000377
4.015625,0.000378
4.019531,0.000377
4.023438,0.000375
4.027344,0.000371
4.031250,0.000365
4.035156,0.000357
4.039062,0.000349
4.042969,0.000338
4.046875,0.000327
4.050781,0.000314
4.054688,0.000300
4.058594,0.000286
4.062500,0.000270
4.066406,0.000254
4.070312,0.000237
4.074219,0.000220
4.078125,0.000203
4.082031,0.000186
4.085938,0.000169
4.089844,0.000152
4.093750,0.000135
4.097656,0.000119
4.101562,0.000103
4.105469,0.000087
4.109375,0.000073
4.113281,0.000059
4.117188,0.000046
4.121094,0.000033
4.125000,0.000021
4.128906,0.000011
4.132812,0.000001
4.136719,-0.000009
4.140625,-0.000017
4.144531,-0.000025
4.148438,-0.000032
4.152344,-0.000038
4.156250,-0.000044
4.160156,-0.000049
4.164062,-0.000053
4.167969,-0.000057
4.171875,-0.000060
4.175781,-0.000063
4.179688,-0.000066
4.183594,-0.000067
4.187500,-0.000069
4.191406,-0.000070
4.195312,-0.000071
4.199219,-0.000072
4.203125,-0.000073
4.207031,-0.000073
4.210938,-0.000073
4.214844,-0.000073
4.218750,-0.000073
4.222656,-0.000073
4.226562,-0.000072
4.230469,-0.000072
4.234375,-0.000071
4.238281,-0.000070
4.242188,-0.000070
4.246094,-0.000069
4.250000,-0.000068
4.253906,-0.000067
4.257812,-0.000066
4.261719,-0.000065
4.265625,-0.000064
4.269531,-0.000064
4.273438,-0.000063
4.277344,-0.000062
4.281250,-0.000061
4.285156,-0.000060
4.289062,-0.000059
4.292969,-0.000058
4.296875,-0.000057
4.300781,-0.000056
4.304688,-0.000056
4.308594,-0.000055
4.312500,-0.000054
4.316406,-0.000053
4.320312,-0.000052
4.324219,-0.000051
4.328125,-0.000050
4.332031,-0.000049
4.335938,-0.000049
4.339844,-0.000048
4.343750,-0.000047
4.347656,-0.000046
4.351562,-0.000045
4.355469,-0.000044
4.359375,-0.000043
4.363281,-0.000042
4.367188,-0.000042
4.371094,-0.000041
4.375000,-0.000040
4.378906,-0.000039
4.382812,-0.000038
4.386719,-0.000037
4.390625,-0.000036
4.394531,-0.000035
4.398438,-0.000034
4.402344,-0.000033
4.406250,-0.000032
4.410156,-0.000031
4.414062,-0.000030
4.417969,-0.000029
4.421875,-0.000028
4.425781,-0.000027
4.429688,-0.000025
4.433594,-0.000023
4.437500,-0.000021
4.441406,-0.000019
4.445312,-0.000016
4.449219,-0.000012
4.453125,-0.000008
4.457031,-0.000004
4.460938,0.000002
4.464844,0.000008
4.468750,0.000015
4.472656,0.000023
4.476562,0.000033
4.480469,0.000044
4.484375,0.000056
4.488281,0.000069
4.492188,0.000083
4.496094,0.000098
4.500000,0.000114
4.503906,0.000130
4.507812,0.000147
4.511719,0.000164
4.515625,0.000182
4.519531,0.000198
4.523438,0.000214
4.527344,0.000229
4.531250,0.000242
4.535156,0.000253
4.539062,0.000261
4.542969,0.000268
4.546875,0.000272
4.550781,0.000273
4.554688,0.000271
4.558594,0.000267
4.562500,0.000260
4.566406,0.000251
4.570312,0.000240
4.574219,0.000226
4.578125,0.000212
4.582031,0.000196
4.585938,0.000180
4.589844,0.000163
4.593750,0.000146
4.597656,0.000130
4.601562,0.000114
4.605469,0.000099
4.609375,0.000085
4.613281,0.000072
4.617188,0.000060
4.621094,0.000049
4.625000,0.000040
4.628906,0.000031
4.632812,0.000024
4.636719,0.000018
4.640625,0.000013
4.644531,0.000009
4.648438,0.000006
4.652344,0.000004
4.656250,0.000001
4.660156,-0.000002
4.664062,-0.000007
4.667969,-0.000013
4.671875,-0.000022
4.675781,-0.000035
4.679688,-0.000054
4.683594,-0.000076
4.687500,-0.000102
4.691406,-0.000127
4.695312,-0.000149
4.699219,-0.000161
4.703125,-0.000158
4.707031,-0.000134
4.710938,-0.000082
4.714844,0.000003
4.718750,0.000121
4.722656,0.000269
4.726562,0.000441
4.730469,0.000628
4.734375,0.000815
4.738281,0.000977
4.742188,0.001089
4.746094,0.001136
4.750000,0.001113
4.753906,0.001020
4.757812,0.000868
4.761719,0.000679
4.765625,0.000476
4.769531,0.000280
4.773438,0.000105
4.777344,-0.000038
4.781250,-0.000144
4.785156,-0.000213
4.789062,-0.000247
4.792969,-0.000250
4.796875,-0.000231
4.800781,-0.000198
4.804688,-0.000158
4.808594,-0.000117
4.812500,-0.000079
4.816406,-0.000047
4.820312,-0.000022
4.824219,-0.000005
4.828125,0.000007
4.832031,0.000015
4.835938,0.000020
4.839844,0.000024
4.843750,0.000027
4.847656,0.000029
4.851562,0.000032
4.855469,0.000035
4.859375,0.000038
4.863281,0.000042
4.867188,0.000045
4.871094,0.000050
4.875000,0.000054
4.878906,0.000059
4.882812,0.000065
4.886719,0.000071
4.890625,0.000078
4.894531,0.000085
4.898438,0.000093
4.902344,0.000102
4.906250,0.000112
4.910156,0.000122
4.914062,0.000133
4.917969,0.000144
4.921875,0.000156
4.925781,0.000169
4.929688,0.000183
4.933594,0.000198
4.937500,0.000212
4.941406,0.000228
4.945312,0.000244
4.949219,0.000260
4.953125,0.000277
4.957031,0.000293
4.960938,0.000310
4.964844,0.000327
4.968750,0.000344
4.972656,0.000360
4.976562,0.000375
4.980469,0.000390
4.984375,0.000404
4.988281,0.000418
4.992188,0.000430
4.996094,0.000441
5.000000,0.000451
5.003906,0.000459
5.007812,0.000466
5.011719,0.000471
5.015625,0.000475
5.019531,0.000477
5.023438,0.000477
5.027344,0.000475
5.031250,0.000472
5.035156,0.000467
5.039062,0.000460
5.042969,0.000452
5.046875,0.000443
5.050781,0.000432
5.054688,0.000420
5.058594,0.000407
5.062500,0.000393
5.066406,0.000378
5.070312,0.000362
5.074219,0.000346
5.078125,0.000329
5.082031,0.000312
5.085938,0.000294
5.089844,0.000277
5.093750,0.000260
5.097656,0.000243
5.101562,0.000226
5.105469,0.000210
5.109375,0.000195
5.113281,0.000180
5.117188,0.000166
5.121094,0.000152
5.125000,0.000140
5.128906,0.000128
5.132812,0.000117
5.136719,0.000106
5.140625,0.000097
5.144531,0.000088
5.148438,0.000080
5.152344,0.000073
5.156250,0.000067
5.160156,0.000061
5.164062,0.000056
5.167969,0.000052
5.171875,0.000048
5.175781,0.000044
5.179688,0.000041
5.183594,0.000039
5.187500,0.000037
5.191406,0.000035
5.195312,0.000034
5.199219,0.000033
5.203125,0.000032
5.207031,0.000031
5.210938,0.000031
5.214844,0.000031
5.218750,0.000031
5.222656,0.000031
5.226562,0.000031
5.230469,0.000031
5.234375,0.000031
5.238281,0.000032
5.242188,0.000032
5.246094,0.000033
5.250000,0.000033
5.253906,0.000034
5.257812,0.000035
5.261719,0.000035
5.265625,0.000036
5.269531,0.000037
5.273438,0.000038
5.277344,0.000038
5.281250,0.000039
5.285156,0.000040
5.289062,0.000041
5.292969,0.000041
5.296875,0.000042
5.300781,0.000043
5.304688,0.000044
5.308594,0.000044
5.312500,0.000045
5.316406,0.000046
5.320312,0.000046
5.324219,0.000047
5.328125,0.000048
5.332031,0.000048
5.335938,0.000049
5.339844,0.000050
5.343750,0.000050
5.347656,0.000051
5.351562,0.000052
5.355469,0.000052
5.359375,0.000053
5.363281,0.000053
5.367188,0.000054
5.371094,0.000055
5.375000,0.000055
5.378906,0.000056
5.382812,0.000057
5.386719,0.000057
5.390625,0.000058
5.394531,0.000058
5.398438,0.000059
5.402344,0.000060
5.406250,0.000061
5.410156,0.000061
5.414062,0.000062
5.417969,0.000063
5.421875,0.000064
5.425781,0.000065
5.429688,0.000066
5.433594,0.000068
5.437500,0.000070
5.441406,0.000072
5.445312,0.000074
5.449219,0.000077
5.453125,0.000081
5.457031,0.000085
5.460938,0.000090
5.464844,0.000096
5.468750,0.000103
5.472656,0.000111
5.476562,0.000120
5.480469,0.000130
5.484375,0.000141
5.488281,0.000153
5.492188,0.000167
5.496094,0.000182
5.500000,0.000197
5.503906,0.000213
5.507812,0.000230
5.511719,0.000247
5.515625,0.000264
5.519531,0.000280
5.523438,0.000295
5.527344,0.000309
5.531250,0.000322
5.535156,0.000333
5.539062,0.000341
5.542969,0.000347
5.546875,0.000350
5.550781,0.000351
5.554688,0.000349
5.558594,0.000344
5.562500,0.000336
5.566406,0.000327
5.570312,0.000315
5.574219,0.000301
5.578125,0.000286
5.582031,0.000269
5.585938,0.000253
5.589844,0.000235
5.593750,0.000218
5.597656,0.000201
5.601562,0.000185
5.605469,0.000170
5.609375,0.000156
5.613281,0.000142
5.617188,0.000130
5.621094,0.000120
5.625000,0.000110
5.628906,0.000102
5.632812,0.000095
5.636719,0.000089
5.640625,0.000084
5.644531,0.000080
5.648438,0.000077
5.652344,0.000074
5.656250,0.000070
5.660156,0.000066
5.664062,0.000061
5.667969,0.000053
5.671875,0.000041
5.675781,0.000025
5.679688,0.000004
5.683594,-0.000021
5.687500,-0.000048
5.691406,-0.000072
5.695312,-0.000089
5.699219,-0.000095
5.703125,-0.000081
5.707031,-0.000041
5.710938,0.000031
5.714844,0.000135
5.718750,0.000271
5.722656,0.000433
5.726562,0.000617
5.730469,0.000810
5.734375,0.000983
5.738281,0.001111
5.742188,0.001177
5.746094,0.001174
5.750000,0.001100
5.753906,0.000965
5.757812,0.000785
5.761719,0.000585
5.765625,0.000385
5.769531,0.000201
5.773438,0.000046
5.777344,-0.000074
5.781250,-0.000154
5.785156,-0.000197
5.789062,-0.000209
5.792969,-0.000196
5.796875,-0.000166
5.800781,-0.000126
5.804688,-0.000084
5.808594,-0.000045
5.812500,-0.000011
5.816406,0.000014
5.820312,0.000032
5.824219,0.000045
5.828125,0.000053
5.832031,0.000059
5.835938,0.000062
5.839844,0.000064
5.843750,0.000066
5.847656,0.000069
5.851562,0.000071
5.855469,0.000074
5.859375,0.000077
5.863281,0.000080
5.867188,0.000084
5.871094,0.000088
5.875000,0.000092
5.878906,0.000097
5.882812,0.000103
5.886719,0.000109
5.890625,0.000116
5.894531,0.000123
5.898438,0.000131
5.902344,0.000140
5.906250,0.000149
5.910156,0.000160
5.914062,0.000171
5.917969,0.000182
5.921875,0.000195
5.925781,0.000208
5.929688,0.000221
5.933594,0.000236
5.937500,0.000251
5.941406,0.000266
5.945312,0.000282
5.949219,0.000298
5.953125,0.000314
5.957031,0.000330
5.960938,0.000347
5.964844,0.000363
5.968750,0.000378
5.972656,0.000393
5.976562,0.000408
5.980469,0.000421
5.984375,0.000434
5.988281,0.000446
5.992188,0.000457
5.996094,0.000466
6.000000,0.000474
6.003906,0.000481
6.007812,0.000486
6.011719,0.000489
6.015625,0.000490
6.019531,0.000490
6.023438,0.000488
6.027344,0.000485
6.031250,0.000479
6.035156,0.000472
6.039062,0.000464
6.042969,0.000454
6.046875,0.000443
6.050781,0.000430
6.054688,0.000417
6.058594,0.000402
6.062500,0.000386
6.066406,0.000370
6.070312,0.000353
6.074219,0.000335
6.078125,0.000318
6.082031,0.000300
6.085938,0.000282
6.089844,0.000264
6.093750,0.000247
6.097656,0.000230
6.101562,0.000213
6.105469,0.000197
6.109375,0.000182
6.113281,0.000167
6.117188,0.000153
6.121094,0.000140
6.125000,0.000127
6.128906,0.000116
6.132812,0.000105
6.136719,0.000095
6.140625,0.000086
6.144531,0.000077
6.148438,0.000070
6.152344,0.000063
6.156250,0.000057
6.160156,0.000051
6.164062,0.000046
6.167969,0.000042
6.171875,0.000038
6.175781,0.000034
6.179688,0.000031
6.183594,0.000029
6.187500,0.000026
6.191406,0.000024
6.195312,0.000023
6.199219,0.000021
6.203125,0.000020
6.207031,0.000019
6.210938,0.000019
6.214844,0.000018
6.218750,0.000017
6.222656,0.000017
6.226562,0.000017
6.230469,0.000017
6.234375,0.000016
6.238281,0.000016
6.242188,0.000017
6.246094,0.000017
6.250000,0.000017
6.253906,0.000017
6.257812,0.000017
6.261719,0.000017
6.265625,0.000018
6.269531,0.000018
6.273438,0.000018
6.277344,0.000018
6.281250,0.000019
6.285156,0.000019
6.289062,0.000019
6.292969,0.000019
6.296875,0.000019
6.300781,0.000019
6.304688,0.000020
6.308594,0.000020
6.312500,0.000020
6.316406,0.000020
6.320312,0.000020
6.324219,0.000020
6.328125,0.000021
6.332031,0.000021
6.335938,0.000021
6.339844,0.000021
6.343750,0.000021
6.347656,0.000021
6.351562,0.000021
6.355469,0.000021
6.359375,0.000022
6.363281,0.000022
6.367188,0.000022
6.371094,0.000022
6.375000,0.000022
6.378906,0.000022
6.382812,0.000022
6.386719,0.000022
6.390625,0.000022
6.394531,0.000022
6.398438,0.000023
6.402344,0.000023
6.406250,0.000023
6.410156,0.000023
6.414062,0.000024
6.417969,0.000024
6.421875,0.000025
6.425781,0.000025
6.429688,0.000026
6.433594,0.000027
6.437500,0.000029
6.441406,0.000031
6.445312,0.000034
6.449219,0.000037
6.453125,0.000042
6.457031,0.000047
6.460938,0.000053
6.464844,0.000060
6.468750,0.000068
6.472656,0.000077
6.476562,0.000086
6.480469,0.000098
6.484375,0.000110
6.488281,0.000123
6.492188,0.000137
6.496094,0.000153
6.500000,0.000170
6.503906,0.000186
6.507812,0.000203
6.511719,0.000219
6.515625,0.000235
6.519531,0.000249
6.523438,0.000262
6.527344,0.000273
6.531250,0.000281
6.535156,0.000288
6.539062,0.000292
6.542969,0.000294
6.546875,0.000294
6.550781,0.000290
6.554688,0.000284
6.558594,0.000275
6.562500,0.000264
6.566406,0.000251
6.570312,0.000236
6.574219,0.000220
6.578125,0.000203
6.582031,0.000185
6.585938,0.000168
6.589844,0.000151
6.593750,0.000134
6.597656,0.000118
6.601562,0.000102
6.605469,0.000088
6.609375,0.000075
6.613281,0.000063
6.617188,0.000053
6.621094,0.000043
6.625000,0.000035
6.628906,0.000028
6.632812,0.000022
6.636719,0.000017
6.640625,0.000013
6.644531,0.000009
6.648438,0.000006
6.652344,0.000002
6.656250,-0.000003
6.660156,-0.000010
6.664062,-0.000020
6.667969,-0.000034
6.671875,-0.000052
6.675781,-0.000075
6.679688,-0.000102
6.683594,-0.000128
6.687500,-0.000150
6.691406,-0.000163
6.695312,-0.000161
6.699219,-0.000136
6.703125,-0.000082
6.707031,0.000004
6.710938,0.000124
6.714844,0.000273
6.718750,0.000447
6.722656,0.000636
6.726562,0.000822
6.730469,0.000975
6.734375,0.001075
6.738281,0.001107
6.742188,0.001068
6.746094,0.000963
6.750000,0.000803
6.753906,0.000610
6.757812,0.000406
6.761719,0.000211
6.765625,0.000040
6.769531,-0.000099
6.773438,-0.000200
6.777344,-0.000264
6.781250,-0.000295
6.785156,-0.000295
6.789062,-0.000275
6.792969,-0.000242
6.796875,-0.000203
6.800781,-0.000162
6.804688,-0.000125
6.808594,-0.000094
6.812500,-0.000071
6.816406,-0.000055
6.820312,-0.000044
6.824219,-0.000037
6.828125,-0.000033
6.832031,-0.000030
6.835938,-0.000028
6.839844,-0.000025
6.843750,-0.000023
6.847656,-0.000021
6.851562,-0.000019
6.855469,-0.000016
6.859375,-0.000013
6.863281,-0.000009
6.867188,-0.000005
6.871094,-0.000001
6.875000,0.000004
6.878906,0.000010
6.882812,0.000016
6.886719,0.000022
6.890625,0.000030
6.894531,0.000038
6.898438,0.000046
6.902344,0.000056
6.906250,0.000066
6.910156,0.000077
6.914062,0.000089
6.917969,0.000101
6.921875,0.000114
6.925781,0.000128
6.929688,0.000142
6.933594,0.000157
6.937500,0.000172
6.941406,0.000187
6.945312,0.000203
6.949219,0.000219
6.953125,0.000235
6.957031,0.000252
6.960938,0.000267
6.964844,0.000283
6.968750,0.000298
6.972656,0.000313
6.976562,0.000326
6.980469,0.000339
6.984375,0.000351
6.988281,0.000361
6.992188,0.000371
6.996094,0.000379
7.000000,0.000385
7.003906,0.000390
7.007812,0.000393
7.011719,0.000395
7.015625,0.000395
7.019531,0.000393
7.023438,0.000390
7.027344,0.000384
7.031250,0.000377
7.035156,0.000368
7.039062,0.000358
7.042969,0.000347
7.046875,0.000334
7.050781,0.000321
7.054688,0.000306
7.058594,0.000291
7.062500,0.000275
7.066406,0.000258
7.070312,0.000241
7.074219,0.000224
7.078125,0.000206
7.082031,0.000189
7.085938,0.000171
7.089844,0.000153
7.093750,0.000136
7.097656,0.000119
7.101562,0.000103
7.105469,0.000087
7.109375,0.000072
7.113281,0.000058
7.117188,0.000045
7.121094,0.000032
7.125000,0.000020
7.128906,0.000009
7.132812,-0.000001
7.136719,-0.000010
7.140625,-0.000019
7.144531,-0.000027
7.148438,-0.000034
7.152344,-0.000041
7.156250,-0.000047
7.160156,-0.000052
7.164062,-0.000057
7.167969,-0.000061
7.171875,-0.000064
7.175781,-0.000067
7.179688,-0.000070
7.183594,-0.000072
7.187500,-0.000074
7.191406,-0.000076
7.195312,-0.000077
7.199219,-0.000079
7.203125,-0.000080
7.207031,-0.000080
7.210938,-0.000081
7.214844,-0.000081
7.218750,-0.000082
7.222656,-0.000082
7.226562,-0.000082
7.230469,-0.000082
7.234375,-0.000082
7.238281,-0.000082
7.242188,-0.000081
7.246094,-0.000081
7.250000,-0.000081
7.253906,-0.000080
7.257812,-0.000080
7.261719,-0.000080
7.265625,-0.000079
7.269531,-0.000079
7.273438,-0.000079
7.277344,-0.000078
7.281250,-0.000078
7.285156,-0.000078
7.289062,-0.000077
7.292969,-0.000077
7.296875,-0.000077
7.300781,-0.000076
7.304688,-0.000076
7.308594,-0.000076
7.312500,-0.000075
7.316406,-0.000075
7.320312,-0.000075
7.324219,-0.000074
7.328125,-0.000074
7.332031,-0.000074
7.335938,-0.000073
7.339844,-0.000073
7.343750,-0.000073
7.347656,-0.000072
7.351562,-0.000072
7.355469,-0.000072
7.359375,-0.000071
7.363281,-0.000071
7.367188,-0.000071
7.371094,-0.000070
7.375000,-0.000070
7.378906,-0.000070
7.382812,-0.000069
7.386719,-0.000069
7.390625,-0.000069
7.394531,-0.000068
7.398438,-0.000068
7.402344,-0.000068
7.406250,-0.000067
7.410156,-0.000067
7.414062,-0.000066
7.417969,-0.000065
7.421875,-0.000064
7.425781,-0.000063
7.429688,-0.000061
7.433594,-0.000059
7.437500,-0.000057
7.441406,-0.000054
7.445312,-0.000051
7.449219,-0.000047
7.453125,-0.000042
7.457031,-0.000037
7.460938,-0.000031
7.464844,-0.000024
7.468750,-0.000017
7.472656,-0.000008
7.476562,0.000002
7.480469,0.000013
7.484375,0.000025
7.488281,0.000039
7.492188,0.000054
7.496094,0.000071
7.500000,0.000088
7.503906,0.000105
7.507812,0.000122
7.511719,0.000139
7.515625,0.000154
7.519531,0.000169
7.523438,0.000182
7.527344,0.000193
7.531250,0.000202
7.535156,0.000209
7.539062,0.000214
7.542969,0.000217
7.546875,0.000217
7.550781,0.000214
7.554688,0.000209
7.558594,0.000202
7.562500,0.000192
7.566406,0.000180
7.570312,0.000166
7.574219,0.000150
7.578125,0.000133
7.582031,0.000116
7.585938,0.000099
7.589844,0.000082
7.593750,0.000065
7.597656,0.000049
7.601562,0.000034
7.605469,0.000020
7.609375,0.000007
7.613281,-0.000005
7.617188,-0.000016
7.621094,-0.000025
7.625000,-0.000033
7.628906,-0.000040
7.632812,-0.000046
7.636719,-0.000051
7.640625,-0.000055
7.644531,-0.000059
7.648438,-0.000062
7.652344,-0.000066
7.656250,-0.000070
7.660156,-0.000075
7.664062,-0.000083
7.667969,-0.000094
7.671875,-0.000110
7.675781,-0.000130
7.679688,-0.000156
7.683594,-0.000182
7.687500,-0.000206
7.691406,-0.000223
7.695312,-0.000228
7.699219,-0.000214
7.703125,-0.000178
7.707031,-0.000111
7.710938,-0.000013
7.714844,0.000119
7.718750,0.000281
7.722656,0.000463
7.726562,0.000652
7.730469,0.000826
7.734375,0.000963
7.738281,0.001042
7.742188,0.001053
7.746094,0.000992
7.750000,0.000867
7.753906,0.000692
7.757812,0.000491
7.761719,0.000289
7.765625,0.000103
7.769531,-0.000057
7.773438,-0.000183
7.777344,-0.000271
7.781250,-0.000323
7.785156,-0.000342
7.789062,-0.000334
7.792969,-0.000309
7.796875,-0.000271
7.800781,-0.000229
7.804688,-0.000188
7.808594,-0.000152
7.812500,-0.000125
7.816406,-0.000104
7.820312,-0.000089
7.824219,-0.000079
7.828125,-0.000073
7.832031,-0.000068
7.835938,-0.000065
7.839844,-0.000063
7.843750,-0.000060
7.847656,-0.000058
7.851562,-0.000055
7.855469,-0.000052
7.859375,-0.000048
7.863281,-0.000045
7.867188,-0.000041
7.871094,-0.000036
7.875000,-0.000031
7.878906,-0.000025
7.882812,-0.000019
7.886719,-0.000012
7.890625,-0.000005
7.894531,0.000003
7.898438,0.000012
7.902344,0.000022
7.906250,0.000032
7.910156,0.000043
7.914062,0.000054
7.917969,0.000067
7.921875,0.000080
7.925781,0.000093
7.929688,0.000108
7.933594,0.000123
7.937500,0.000138
7.941406,0.000154
7.945312,0.000170
7.949219,0.000187
7.953125,0.000203
7.957031,0.000220
7.960938,0.000236
7.964844,0.000252
7.968750,0.000268
7.972656,0.000284
7.976562,0.000299
7.980469,0.000313
7.984375,0.000326
7.988281,0.000338
7.992188,0.000348
7.996094,0.000358
8.000000,0.000366
8.003906,0.000373
8.007812,0.000378
8.011719,0.000381
8.015625,0.000383
8.019531,0.000382
8.023438,0.000381
8.027344,0.000377
8.031250,0.000372
8.035156,0.000365
8.039062,0.000357
8.042969,0.000347
8.046875,0.000336
8.050781,0.000324
8.054688,0.000310
8.058594,0.000296
8.062500,0.000281
8.066406,0.000265
8.070312,0.000248
8.074219,0.000231
8.078125,0.000214
8.082031,0.000197
8.085938,0.000179
8.089844,0.000162
8.093750,0.000146
8.097656,0.000129
8.101562,0.000113
8.105469,0.000098
8.109375,0.000083
8.113281,0.000069
8.117188,0.000055
8.121094,0.000042
8.125000,0.000031
8.128906,0.000020
8.132812,0.000009
8.136719,-0.000000
8.140625,-0.000009
8.144531,-0.000017
8.148438,-0.000024
8.152344,-0.000030
8.156250,-0.000036
8.160156,-0.000041
8.164062,-0.000046
8.167969,-0.000050
8.171875,-0.000053
8.175781,-0.000056
8.179688,-0.000059
8.183594,-0.000061
8.187500,-0.000062
8.191406,-0.000064
8.195312,-0.000065
8.199219,-0.000065
8.203125,-0.000066
8.207031,-0.000066
8.210938,-0.000067
8.214844,-0.000067
8.218750,-0.000067
8.222656,-0.000066
8.226562,-0.000066
8.230469,-0.000065
8.234375,-0.000065
8.238281,-0.000064
8.242188,-0.000063
8.246094,-0.000063
8.250000,-0.000062
8.253906,-0.000061
8.257812,-0.000060
8.261719,-0.000059
8.265625,-0.000058
8.269531,-0.000057
8.273438,-0.000057
8.277344,-0.000056
8.281250,-0.000055
8.285156,-0.000054
8.289062,-0.000053
8.292969,-0.000052
8.296875,-0.000051
8.300781,-0.000051
8.304688,-0.000050
8.308594,-0.000049
8.312500,-0.000048
8.316406,-0.000047
8.320312,-0.000046
8.324219,-0.000045
8.328125,-0.000045
8.332031,-0.000044
8.335938,-0.000043
8.339844,-0.000042
8.343750,-0.000041
8.347656,-0.000040
8.351562,-0.000039
8.355469,-0.000039
8.359375,-0.000038
8.363281,-0.000037
8.367188,-0.000036
8.371094,-0.000035
8.375000,-0.000034
8.378906,-0.000033
8.382812,-0.000032
8.386719,-0.000032
8.390625,-0.000031
8.394531,-0.000030
8.398438,-0.000029
8.402344,-0.000028
8.406250,-0.000027
8.410156,-0.000026
8.414062,-0.000025
8.417969,-0.000024
8.421875,-0.000023
8.425781,-0.000021
8.429688,-0.000020
8.433594,-0.000018
8.437500,-0.000016
8.441406,-0.000013
8.445312,-0.000010
8.449219,-0.000006
8.453125,-0.000002
8.457031,0.000002
8.460938,0.000008
8.464844,0.000014
8.468750,0.000022
8.472656,0.000031
8.476562,0.000040
8.480469,0.000052
8.484375,0.000064
8.488281,0.000077
8.492188,0.000092
8.496094,0.000107
8.500000,0.000123
8.503906,0.000140
8.507812,0.000157
8.511719,0.000174
8.515625,0.000191
8.519531,0.000208
8.523438,0.000223
8.527344,0.000237
8.531250,0.000249
8.535156,0.000259
8.539062,0.000267
8.542969,0.000272
8.546875,0.000275
8.550781,0.000275
8.554688,0.000272
8.558594,0.000267
8.562500,0.000259
8.566406,0.000249
8.570312,0.000237
8.574219,0.000223
8.578125,0.000208
8.582031,0.000192
8.585938,0.000175
8.589844,0.000158
8.593750,0.000142
8.597656,0.000125
8.601562,0.000110
8.605469,0.000095
8.609375,0.000082
8.613281,0.000069
8.617188,0.000058
8.621094,0.000048
8.625000,0.000039
8.628906,0.000032
8.632812,0.000026
8.636719,0.000023
8.640625,0.000022
8.644531,0.000021
8.648438,0.000018
8.652344,0.000014
8.656250,0.000008
8.660156,-0.000001
8.664062,-0.000012
8.667969,-0.000027
8.671875,-0.000044
8.675781,-0.000063
8.679688,-0.000084
8.683594,-0.000105
8.687500,-0.000126
8.691406,-0.000146
8.695312,-0.000163
8.699219,-0.000171
8.703125,-0.000160
8.707031,-0.000119
8.710938,-0.000044
8.714844,0.000067
8.718750,0.000210
8.722656,0.000380
8.726562,0.000565
8.730469,0.000752
8.734375,0.000922
8.738281,0.001052
8.742188,0.001124
8.746094,0.001125
8.750000,0.001054
8.753906,0.000919
8.757812,0.000740
8.761719,0.000540
8.765625,0.000339
8.769531,0.000156
8.773438,0.000002
8.777344,-0.000116
8.781250,-0.000197
8.785156,-0.000241
8.789062,-0.000255
8.792969,-0.000243
8.796875,-0.000215
8.800781,-0.000176
8.804688,-0.000134
8.808594,-0.000093
8.812500,-0.000059
8.816406,-0.000032
8.820312,-0.000013
8.824219,0.000001
8.828125,0.000010
8.832031,0.000016
8.835938,0.000020
8.839844,0.000024
8.843750,0.000026
8.847656,0.000029
8.851562,0.000032
8.855469,0.000035
8.859375,0.000038
8.863281,0.000042
8.867188,0.000046
8.871094,0.000050
8.875000,0.000055
8.878906,0.000061
8.882812,0.000067
8.886719,0.000074
8.890625,0.000081
8.894531,0.000089
8.898438,0.000097
8.902344,0.000106
8.906250,0.000116
8.910156,0.000127
8.914062,0.000138
8.917969,0.000150
8.921875,0.000163
8.925781,0.000177
8.929688,0.000191
8.933594,0.000206
8.937500,0.000221
8.941406,0.000237
8.945312,0.000253
8.949219,0.000269
8.953125,0.000286
8.957031,0.000303
8.960938,0.000319
8.964844,0.000336
8.968750,0.000352
8.972656,0.000368
8.976562,0.000384
8.980469,0.000398
8.984375,0.000412
8.988281,0.000424
8.992188,0.000436
8.996094,0.000446
9.000000,0.000455
9.003906,0.000462
9.007812,0.000468
9.011719,0.000472
9.015625,0.000474
9.019531,0.000475
9.023438,0.000474
9.027344,0.000471
9.031250,0.000467
9.035156,0.000461
9.039062,0.000453
9.042969,0.000443
9.046875,0.000433
9.050781,0.000421
9.054688,0.000408
9.058594,0.000394
9.062500,0.000379
9.066406,0.000363
9.070312,0.000347
9.074219,0.000331
9.078125,0.000314
9.082031,0.000297
9.085938,0.000280
9.089844,0.000263
9.093750,0.000247
9.097656,0.000230
9.101562,0.000214
9.105469,0.000198
9.109375,0.000183
9.113281,0.000168
9.117188,0.000155
9.121094,0.000142
9.125000,0.000130
9.128906,0.000118
9.132812,0.000108
9.136719,0.000098
9.140625,0.000089
9.144531,0.000081
9.148438,0.000074
9.152344,0.000067
9.156250,0.000061
9.160156,0.000056
9.164062,0.000051
9.167969,0.000047
9.171875,0.000044
9.175781,0.000041
9.179688,0.000038
9.183594,0.000036
9.187500,0.000034
9.191406,0.000033
9.195312,0.000031
9.199219,0.000030
9.203125,0.000030
9.207031,0.000029
9.210938,0.000029
9.214844,0.000029
9.218750,0.000029
9.222656,0.000029
9.226562,0.000029
9.230469,0.000030
9.234375,0.000030
9.238281,0.000031
9.242188,0.000031
9.246094,0.000032
9.250000,0.000032
9.253906,0.000033
9.257812,0.000034
9.261719,0.000034
9.265625,0.000035
9.269531,0.000036
9.273438,0.000037
9.277344,0.000037
9.281250,0.000038
9.285156,0.000039
9.289062,0.000040
9.292969,0.000040
9.296875,0.000041
9.300781,0.000042
9.304688,0.000042
9.308594,0.000043
9.312500,0.000044
9.316406,0.000044
9.320312,0.000045
9.324219,0.000046
9.328125,0.000046
9.332031,0.000047
9.335938,0.000048
9.339844,0.000048
9.343750,0.000049
9.347656,0.000050
9.351562,0.000050
9.355469,0.000051
9.359375,0.000052
9.363281,0.000052
9.367188,0.000053
9.371094,0.000054
9.375000,0.000054
9.378906,0.000055
9.382812,0.000056
9.386719,0.000056
9.390625,0.000057
9.394531,0.000057
9.398438,0.000058
9.402344,0.000059
9.406250,0.000060
9.410156,0.000060
9.414062,0.000061
9.417969,0.000062
9.421875,0.000063
9.425781,0.000065
9.429688,0.000066
9.433594,0.000068
9.437500,0.000070
9.441406,0.000072
9.445312,0.000075
9.449219,0.000078
9.453125,0.000083
9.457031,0.000087
9.460938,0.000093
9.464844,0.000099
9.468750,0.000107
9.472656,0.000116
9.476562,0.000125
9.480469,0.000136
9.484375,0.000148
9.488281,0.000162
9.492188,0.000176
9.496094,0.000191
9.500000,0.000207
9.503906,0.000224
9.507812,0.000241
9.511719,0.000258
9.515625,0.000274
9.519531,0.000290
9.523438,0.000304
9.527344,0.000317
9.531250,0.000329
9.535156,0.000338
9.539062,0.000344
9.542969,0.000348
9.546875,0.000350
9.550781,0.000348
9.554688,0.000344
9.558594,0.000338
9.562500,0.000328
9.566406,0.000317
9.570312,0.000304
9.574219,0.000289
9.578125,0.000273
9.582031,0.000256
9.585938,0.000239
9.589844,0.000222
9.593750,0.000205
9.597656,0.000188
9.601562,0.000173
9.605469,0.000158
9.609375,0.000145
9.613281,0.000133
9.617188,0.000122
9.621094,0.000112
9.625000,0.000103
9.628906,0.000096
9.632812,0.000090
9.636719,0.000084
9.640625,0.000080
9.644531,0.000076
9.648438,0.000073
9.652344,0.000070
9.656250,0.000066
9.660156,0.000061
9.664062,0.000054
9.667969,0.000044
9.671875,0.000029
9.675781,0.000010
9.679688,-0.000015
9.683594,-0.000041
9.687500,-0.000067
9.691406,-0.000086
9.695312,-0.000095
9.699219,-0.000088
9.703125,-0.000056
9.707031,0.000006
9.710938,0.000101
9.714844,0.000229
9.718750,0.000386
9.722656,0.000564
9.726562,0.000755
9.730469,0.000937
9.734375,0.001081
9.738281,0.001168
9.742188,0.001184
9.746094,0.001129
9.750000,0.001008
9.753906,0.000837
9.757812,0.000640
9.761719,0.000438
9.765625,0.000249
9.769531,0.000086
9.773438,-0.000042
9.777344,-0.000132
9.781250,-0.000184
9.785156,-0.000204
9.789062,-0.000197
9.792969,-0.000171
9.796875,-0.000134
9.800781,-0.000093
9.804688,-0.000053
9.808594,-0.000018
9.812500,0.000010
9.816406,0.000030
9.820312,0.000044
9.824219,0.000053
9.828125,0.000059
9.832031,0.000063
9.835938,0.000066
9.839844,0.000068
9.843750,0.000071
9.847656,0.000073
9.851562,0.000075
9.855469,0.000078
9.859375,0.000081
9.863281,0.000085
9.867188,0.000089
9.871094,0.000093
9.875000,0.000098
9.878906,0.000104
9.882812,0.000110
9.886719,0.000116
9.890625,0.000123
9.894531,0.000131
9.898438,0.000140
9.902344,0.000149
9.906250,0.000159
9.910156,0.000170
9.914062,0.000182
9.917969,0.000194
9.921875,0.000207
9.925781,0.000220
9.929688,0.000235
9.933594,0.000249
9.937500,0.000265
9.941406,0.000280
9.945312,0.000296
9.949219,0.000312
9.953125,0.000329
9.957031,0.000345
9.960938,0.000361
9.964844,0.000377
9.968750,0.000392
9.972656,0.000407
9.976562,0.000421
9.980469,0.000434
9.984375,0.000446
9.988281,0.000456
9.992188,0.000466
9.996094,0.000474
10.000000,0.000481
10.003906,0.000486
10.007812,0.000490
10.011719,0.000492
10.015625,0.000492
10.019531,0.000490
10.023438,0.000487
10.027344,0.000482
10.031250,0.000475
10.035156,0.000467
10.039062,0.000457
10.042969,0.000446
10.046875,0.000434
10.050781,0.000420
10.054688,0.000406
10.058594,0.000390
10.062500,0.000374
10.066406,0.000358
10.070312,0.000340
10.074219,0.000323
10.078125,0.000305
10.082031,0.000287
10.085938,0.000269
10.089844,0.000252
10.093750,0.000235
10.097656,0.000218
10.101562,0.000202
10.105469,0.000186
10.109375,0.000171
10.113281,0.000157
10.117188,0.000144
10.121094,0.000131
10.125000,0.000120
10.128906,0.000109
10.132812,0.000098
10.136719,0.000089
10.140625,0.000080
10.144531,0.000073
10.148438,0.000066
10.152344,0.000059
10.156250,0.000054
10.160156,0.000048
10.164062,0.000044
10.167969,0.000040
10.171875,0.000037
10.175781,0.000033
10.179688,0.000031
10.183594,0.000028
10.187500,0.000027
10.191406,0.000025
10.195312,0.000023
10.199219,0.000022
10.203125,0.000021
10.207031,0.000020
10.210938,0.000020
10.214844,0.000019
10.218750,0.000019
10.222656,0.000019
10.226562,0.000018
10.230469,0.000018
10.234375,0.000018
10.238281,0.000018
10.242188,0.000018
10.246094,0.000018
10.250000,0.000018
10.253906,0.000018
10.257812,0.000019
10.261719,0.000019
10.265625,0.000019
10.269531,0.000019
10.273438,0.000019
10.277344,0.000020
10.281250,0.000020
10.285156,0.000020
10.289062,0.000020
10.292969,0.000020
10.296875,0.000021
10.300781,0.000021
10.304688,0.000021
10.308594,0.000021
10.312500,0.000021
10.316406,0.000021
10.320312,0.000021
10.324219,0.000022
10.328125,0.000022
10.332031,0.000022
10.335938,0.000022
10.339844,0.000022
10.343750,0.000022
10.347656,0.000022
10.351562,0.000023
10.355469,0.000023
10.359375,0.000023
10.363281,0.000023
10.367188,0.000023
10.371094,0.000023
10.375000,0.000023
10.378906,0.000023
10.382812,0.000023
10.386719,0.000023
10.390625,0.000023
10.394531,0.000024
10.398438,0.000024
10.402344,0.000024
10.406250,0.000024
10.410156,0.000025
10.414062,0.000025
10.417969,0.000026
10.421875,0.000027
10.425781,0.000028
10.429688,0.000029
10.433594,0.000030
10.437500,0.000032
10.441406,0.000035
10.445312,0.000038
10.449219,0.000042
10.453125,0.000047
10.457031,0.000053
10.460938,0.000060
10.464844,0.000068
10.468750,0.000076
10.472656,0.000086
10.476562,0.000097
10.480469,0.000109
10.484375,0.000123
10.488281,0.000137
10.492188,0.000153
10.496094,0.000169
10.500000,0.000186
10.503906,0.000203
10.507812,0.000219
10.511719,0.000234
10.515625,0.000248
10.519531,0.000261
10.523438,0.000272
10.527344,0.000281
10.531250,0.000288
10.535156,0.000293
10.539062,0.000295
10.542969,0.000294
10.546875,0.000291
10.550781,0.000285
10.554688,0.000276
10.558594,0.000265
10.562500,0.000252
10.566406,0.000237
10.570312,0.000220
10.574219,0.000203
10.578125,0.000186
10.582031,0.000169
10.585938,0.000151
10.589844,0.000134
10.593750,0.000118
10.597656,0.000103
10.601562,0.000089
10.605469,0.000076
10.609375,0.000064
10.613281,0.000054
10.617188,0.000044
10.621094,0.000036
10.625000,0.000029
10.628906,0.000025
10.632812,0.000022
10.636719,0.000021
10.640625,0.000018
10.644531,0.000014
10.648438,0.000008
10.652344,-0.000001
10.656250,-0.000013
10.660156,-0.000029
10.664062,-0.000047
10.667969,-0.000068
10.671875,-0.000090
10.675781,-0.000113
10.679688,-0.000135
10.683594,-0.000156
10.687500,-0.000172
10.691406,-0.000174
10.695312,-0.000152
10.699219,-0.000097
10.703125,-0.000006
10.707031,0.000118
10.710938,0.000273
10.714844,0.000449
10.718750,0.000635
10.722656,0.000815
10.726562,0.000968
10.730469,0.001070
10.734375,0.001106
10.738281,0.001069
10.742188,0.000962
10.746094,0.000800
10.750000,0.000605
10.753906,0.000402
10.757812,0.000208
10.761719,0.000039
10.765625,-0.000098
10.769531,-0.000198
10.773438,-0.000260
10.777344,-0.000288
10.781250,-0.000288
10.785156,-0.000267
10.789062,-0.000233
10.792969,-0.000192
10.796875,-0.000151
10.800781,-0.000114
10.804688,-0.000085
10.808594,-0.000063
10.812500,-0.000047
10.816406,-0.000037
10.820312,-0.000030
10.824219,-0.000026
10.828125,-0.000023
10.832031,-0.000021
10.835938,-0.000019
10.839844,-0.000017
10.843750,-0.000015
10.847656,-0.000012
10.851562,-0.000010
10.855469,-0.000006
10.859375,-0.000003
10.863281,0.000001
10.867188,0.000006
10.871094,0.000011
10.875000,0.000016
10.878906,0.000023
10.882812,0.000029
10.886719,0.000037
10.890625,0.000045
10.894531,0.000054
10.898438,0.000064
10.902344,0.000074
10.906250,0.000085
10.910156,0.000097
10.914062,0.000109
10.917969,0.000123
10.921875,0.000136
10.925781,0.000151
10.929688,0.000166
10.933594,0.000181
10.937500,0.000196
10.941406,0.000212
10.945312,0.000228
10.949219,0.000244
10.953125,0.000260
10.957031,0.000276
10.960938,0.000292
10.964844,0.000306
10.968750,0.000321
10.972656,0.000334
10.976562,0.000347
10.980469,0.000358
10.984375,0.000368
10.988281,0.000377
10.992188,0.000385
10.996094,0.000390
11.000000,0.000395
11.003906,0.000397
11.007812,0.000398
11.011719,0.000397
11.015625,0.000395
11.019531,0.000391
11.023438,0.000385
11.027344,0.000377
11.031250,0.000368
11.035156,0.000358
11.039062,0.000346
11.042969,0.000333
11.046875,0.000319
11.050781,0.000303
11.054688,0.000287
11.058594,0.000271
11.062500,0.000254
11.066406,0.000236
11.070312,0.000219
11.074219,0.000201
11.078125,0.000183
11.082031,0.000165
11.085938,0.000148
11.089844,0.000131
11.093750,0.000115
11.097656,0.000099
11.101562,0.000084
11.105469,0.000069
11.109375,0.000055
11.113281,0.000042
11.117188,0.000030
11.121094,0.000019
11.125000,0.000008
11.128906,-0.000002
11.132812,-0.000011
11.136719,-0.000019
11.140625,-0.000027
11.144531,-0.000033
11.148438,-0.000040
11.152344,-0.000045
11.156250,-0.000050
11.160156,-0.000054
11.164062,-0.000058
11.167969,-0.000061
11.171875,-0.000064
11.175781,-0.000067
11.179688,-0.000069
11.183594,-0.000071
11.187500,-0.000072
11.191406,-0.000073
11.195312,-0.000075
11.199219,-0.000075
11.203125,-0.000076
11.207031,-0.000077
11.210938,-0.000077
11.214844,-0.000077
11.218750,-0.000077
11.222656,-0.000077
11.226562,-0.000077
11.230469,-0.000077
11.234375,-0.000077
11.238281,-0.000076
11.242188,-0.000076
11.246094,-0.000076
11.250000,-0.000075
11.253906,-0.000075
11.257812,-0.000075
11.261719,-0.000074
11.265625,-0.000074
11.269531,-0.000074
11.273438,-0.000073
11.277344,-0.000073
11.281250,-0.000073
11.285156,-0.000073
11.289062,-0.000072
11.292969,-0.000072
11.296875,-0.000072
11.300781,-0.000071
11.304688,-0.000071
11.308594,-0.000071
11.312500,-0.000070
11.316406,-0.000070
11.320312,-0.000070
11.324219,-0.000069
11.328125,-0.000069
11.332031,-0.000069
11.335938,-0.000068
11.339844,-0.000068
11.343750,-0.000068
11.347656,-0.000068
11.351562,-0.000067
11.355469,-0.000067
11.359375,-0.000066
11.363281,-0.000066
11.367188,-0.000066
11.371094,-0.000065
11.375000,-0.000065
11.378906,-0.000065
11.382812,-0.000064
11.386719,-0.000064
11.390625,-0.000064
11.394531,-0.000063
11.398438,-0.000063
11.402344,-0.000062
11.406250,-0.000062
11.410156,-0.000061
11.414062,-0.000060
11.417969,-0.000059
11.421875,-0.000058
11.425781,-0.000056
11.429688,-0.000054
11.433594,-0.000052
11.437500,-0.000049
11.441406,-0.000046
11.445312,-0.000042
11.449219,-0.000037
11.453125,-0.000031
11.457031,-0.000024
11.460938,-0.000016
11.464844,-0.000006
11.468750,0.000004
11.472656,0.000016
11.476562,0.000029
11.480469,0.000042
11.484375,0.000057
11.488281,0.000072
11.492188,0.000088
11.496094,0.000105
11.500000,0.000122
11.503906,0.000139
11.507812,0.000155
11.511719,0.000170
11.515625,0.000183
11.519531,0.000195
11.523438,0.000204
11.527344,0.000212
11.531250,0.000217
11.535156,0.000220
11.539062,0.000219
11.542969,0.000216
11.546875,0.000211
11.550781,0.000202
11.554688,0.000192
11.558594,0.000179
11.562500,0.000165
11.566406,0.000149
11.570312,0.000133
11.574219,0.000116
11.578125,0.000099
11.582031,0.000082
11.585938,0.000066
11.589844,0.000049
11.593750,0.000034
11.597656,0.000020
11.601562,0.000007
11.605469,-0.000005
11.609375,-0.000015
11.613281,-0.000024
11.617188,-0.000032
11.621094,-0.000039
11.625000,-0.000044
11.628906,-0.000048
11.632812,-0.000052
11.636719,-0.000056
11.640625,-0.000059
11.644531,-0.000063
11.648438,-0.000067
11.652344,-0.000073
11.656250,-0.000081
11.660156,-0.000094
11.664062,-0.000112
11.667969,-0.000134
11.671875,-0.000160
11.675781,-0.000186
11.679688,-0.000209
11.683594,-0.000224
11.687500,-0.000228
11.691406,-0.000210
11.695312,-0.000162
11.699219,-0.000079
11.703125,0.000037
11.707031,0.000185
11.710938,0.000357
11.714844,0.000541
11.718750,0.000725
11.722656,0.000887
11.726562,0.001004
11.730469,0.001056
11.734375,0.001038
11.738281,0.000948
11.742188,0.000799
11.746094,0.000609
11.750000,0.000406
11.753906,0.000209
11.757812,0.000031
11.761719,-0.000116
11.765625,-0.000227
11.769531,-0.000301
11.773438,-0.000340
11.777344,-0.000348
11.781250,-0.000333
11.785156,-0.000303
11.789062,-0.000263
11.792969,-0.000221
11.796875,-0.000181
11.800781,-0.000148
11.804688,-0.000123
11.808594,-0.000104
11.812500,-0.000091
11.816406,-0.000082
11.820312,-0.000076
11.824219,-0.000073
11.828125,-0.000070
11.832031,-0.000067
11.835938,-0.000065
11.839844,-0.000062
11.843750,-0.000059
11.847656,-0.000056
11.851562,-0.000053
11.855469,-0.000049
11.859375,-0.000044
11.863281,-0.000040
11.867188,-0.000034
11.871094,-0.000029
11.875000,-0.000022
11.878906,-0.000015
11.882812,-0.000008
11.886719,0.000001
11.890625,0.000009
11.894531,0.000019
11.898438,0.000030
11.902344,0.000041
11.906250,0.000052
11.910156,0.000065
11.914062,0.000078
11.917969,0.000092
11.921875,0.000107
11.925781,0.000122
11.929688,0.000137
11.933594,0.000153
11.937500,0.000169
11.941406,0.000186
11.945312,0.000202
11.949219,0.000219
11.953125,0.000235
11.957031,0.000252
11.960938,0.000267
11.964844,0.000283
11.968750,0.000297
11.972656,0.000311
11.976562,0.000324
11.980469,0.000336
11.984375,0.000347
11.988281,0.000356
11.992188,0.000364
11.996094,0.000370
12.000000,0.000375
12.003906,0.000378
12.007812,0.000380
12.011719,0.000379
12.015625,0.000377
12.019531,0.000374
12.023438,0.000368
12.027344,0.000362
12.031250,0.000353
12.035156,0.000343
12.039062,0.000332
12.042969,0.000320
12.046875,0.000306
12.050781,0.000292
12.054688,0.000276
12.058594,0.000260
12.062500,0.000244
12.066406,0.000227
12.070312,0.000210
12.074219,0.000192
12.078125,0.000175
12.082031,0.000158
12.085938,0.000141
12.089844,0.000125
12.093750,0.000109
12.097656,0.000093
12.101562,0.000078
12.105469,0.000064
12.109375,0.000051
12.113281,0.000038
12.117188,0.000026
12.121094,0.000015
12.125000,0.000005
12.128906,-0.000004
12.132812,-0.000013
12.136719,-0.000021
12.140625,-0.000028
12.144531,-0.000034
12.148438,-0.000040
12.152344,-0.000045
12.156250,-0.000050
12.160156,-0.000054
12.164062,-0.000057
12.167969,-0.000060
12.171875,-0.000063
12.175781,-0.000065
12.179688,-0.000067
12.183594,-0.000068
12.187500,-0.000069
12.191406,-0.000070
12.195312,-0.000070
12.199219,-0.000071
12.203125,-0.000071
12.207031,-0.000071
12.210938,-0.000071
12.214844,-0.000071
12.218750,-0.000070
12.222656,-0.000070
12.226562,-0.000069
12.230469,-0.000069
12.234375,-0.000068
12.238281,-0.000068
12.242188,-0.000067
12.246094,-0.000066
12.250000,-0.000065
12.253906,-0.000064
12.257812,-0.000063
12.261719,-0.000063
12.265625,-0.000062
12.269531,-0.000061
12.273438,-0.000060
12.277344,-0.000059
12.281250,-0.000058
12.285156,-0.000057
12.289062,-0.000056
12.292969,-0.000056
12.296875,-0.000055
12.300781,-0.000054
12.304688,-0.000053
12.308594,-0.000052
12.312500,-0.000051
12.316406,-0.000050
12.320312,-0.000049
12.324219,-0.000049
12.328125,-0.000048
12.332031,-0.000047
12.335938,-0.000046
12.339844,-0.000045
12.343750,-0.000044
12.347656,-0.000043
12.351562,-0.000043
12.355469,-0.000042
12.359375,-0.000041
12.363281,-0.000040
12.367188,-0.000039
12.371094,-0.000038
12.375000,-0.000037
12.378906,-0.000037
12.382812,-0.000036
12.386719,-0.000035
12.390625,-0.000034
12.394531,-0.000033
12.398438,-0.000032
12.402344,-0.000031
12.406250,-0.000030
12.410156,-0.000029
12.414062,-0.000028
12.417969,-0.000026
12.421875,-0.000024
12.425781,-0.000023
12.429688,-0.000020
12.433594,-0.000018
12.437500,-0.000015
12.441406,-0.000011
12.445312,-0.000007
12.449219,-0.000003
12.453125,0.000003
12.457031,0.000009
12.460938,0.000016
12.464844,0.000024
12.468750,0.000033
12.472656,0.000044
12.476562,0.000055
12.480469,0.000068
12.484375,0.000082
12.488281,0.000097
12.492188,0.000113
12.496094,0.000129
12.500000,0.000146
12.503906,0.000163
12.507812,0.000180
12.511719,0.000197
12.515625,0.000213
12.519531,0.000227
12.523438,0.000240
12.527344,0.000252
12.531250,0.000261
12.535156,0.000267
12.539062,0.000272
12.542969,0.000273
12.546875,0.000272
12.550781,0.000268
12.554688,0.000261
12.558594,0.000252
12.562500,0.000241
12.566406,0.000228
12.570312,0.000213
12.574219,0.000198
12.578125,0.000181
12.582031,0.000165
12.585938,0.000148
12.589844,0.000131
12.593750,0.000115
12.597656,0.000100
12.601562,0.000086
12.605469,0.000073
12.609375,0.000061
12.613281,0.000050
12.617188,0.000041
12.621094,0.000032
12.625000,0.000025
12.628906,0.000019
12.632812,0.000014
12.636719,0.000010
12.640625,0.000007
12.644531,0.000005
12.648438,0.000002
12.652344,-0.000001
12.656250,-0.000006
12.660156,-0.000012
12.664062,-0.000021
12.667969,-0.000034
12.671875,-0.000052
12.675781,-0.000075
12.679688,-0.000100
12.683594,-0.000126
12.687500,-0.000148
12.691406,-0.000160
12.695312,-0.000157
12.699219,-0.000134
12.703125,-0.000082
12.707031,0.000002
12.710938,0.000120
12.714844,0.000269
12.718750,0.000441
12.722656,0.000628
12.726562,0.000814
12.730469,0.000976
12.734375,0.001089
12.738281,0.001137
12.742188,0.001114
12.746094,0.001022
12.750000,0.000874
12.753906,0.000688
12.757812,0.000486
12.761719,0.000288
12.765625,0.000109
12.769531,-0.000041
12.773438,-0.000155
12.777344,-0.000233
12.781250,-0.000275
12.785156,-0.000287
12.789062,-0.000274
12.792969,-0.000246
12.796875,-0.000209
12.800781,-0.000167
12.804688,-0.000126
12.808594,-0.000090
12.812500,-0.000062
12.816406,-0.000042
12.820312,-0.000027
12.824219,-0.000017
12.828125,-0.000010
12.832031,-0.000006
12.835938,-0.000002
12.839844,0.000001
12.843750,0.000004
12.847656,0.000007
12.851562,0.000010
12.855469,0.000013
12.859375,0.000017
12.863281,0.000020
12.867188,0.000025
12.871094,0.000030
12.875000,0.000035
12.878906,0.000041
12.882812,0.000047
12.886719,0.000054
12.890625,0.000061
12.894531,0.000070
12.898438,0.000078
12.902344,0.000088
12.906250,0.000098
12.910156,0.000109
12.914062,0.000120
12.917969,0.000133
12.921875,0.000146
12.925781,0.000159
12.929688,0.000174
12.933594,0.000189
12.937500,0.000204
12.941406,0.000220
12.945312,0.000236
12.949219,0.000253
12.953125,0.000269
12.957031,0.000286
12.960938,0.000303
12.964844,0.000320
12.968750,0.000336
12.972656,0.000352
12.976562,0.000367
12.980469,0.000382
12.984375,0.000396
12.988281,0.000409
12.992188,0.000421
12.996094,0.000431
13.000000,0.000441
13.003906,0.000449
13.007812,0.000455
13.011719,0.000460
13.015625,0.000464
13.019531,0.000465
13.023438,0.000465
13.027344,0.000463
13.031250,0.000460
13.035156,0.000455
13.039062,0.000449
13.042969,0.000441
13.046875,0.000431
13.050781,0.000420
13.054688,0.000408
13.058594,0.000395
13.062500,0.000381
13.066406,0.000366
13.070312,0.000350
13.074219,0.000334
13.078125,0.000317
13.082031,0.000300
13.085938,0.000283
13.089844,0.000266
13.093750,0.000249
13.097656,0.000232
13.101562,0.000215
13.105469,0.000199
13.109375,0.000183
13.113281,0.000168
13.117188,0.000154
13.121094,0.000140
13.125000,0.000127
13.128906,0.000115
13.132812,0.000104
13.136719,0.000093
13.140625,0.000083
13.144531,0.000074
13.148438,0.000066
13.152344,0.000058
13.156250,0.000051
13.160156,0.000045
13.164062,0.000040
13.167969,0.000035
13.171875,0.000031
13.175781,0.000027
13.179688,0.000024
13.183594,0.000021
13.187500,0.000019
13.191406,0.000017
13.195312,0.000015
13.199219,0.000014
13.203125,0.000013
13.207031,0.000012
13.210938,0.000011
13.214844,0.000011
13.218750,0.000011
13.222656,0.000011
13.226562,0.000011
13.230469,0.000011
13.234375,0.000011
13.238281,0.000012
13.242188,0.000012
13.246094,0.000013
13.250000,0.000014
13.253906,0.000015
13.257812,0.000015
13.261719,0.000016
13.265625,0.000017
13.269531,0.000018
13.273438,0.000019
13.277344,0.000020
13.281250,0.000020
13.285156,0.000021
13.289062,0.000022
13.292969,0.000023
13.296875,0.000024
13.300781,0.000024
13.304688,0.000025
13.308594,0.000026
13.312500,0.000027
13.316406,0.000027
13.320312,0.000028
13.324219,0.000029
13.328125,0.000030
13.332031,0.000030
13.335938,0.000031
13.339844,0.000032
13.343750,0.000033
13.347656,0.000033
13.351562,0.000034
13.355469,0.000035
13.359375,0.000035
13.363281,0.000036
13.367188,0.000037
13.371094,0.000038
13.375000,0.000038
13.378906,0.000039
13.382812,0.000040
13.386719,0.000040
13.390625,0.000041
13.394531,0.000042
13.398438,0.000042
13.402344,0.000043
13.406250,0.000044
13.410156,0.000044
13.414062,0.000045
13.417969,0.000046
13.421875,0.000047
13.425781,0.000047
13.429688,0.000048
13.433594,0.000049
13.437500,0.000050
13.441406,0.000052
13.445312,0.000053
13.449219,0.000055
13.453125,0.000058
13.457031,0.000061
13.460938,0.000064
13.464844,0.000069
13.468750,0.000073
13.472656,0.000079
13.476562,0.000085
13.480469,0.000093
13.484375,0.000101
13.488281,0.000110
13.492188,0.000120
13.496094,0.000131
13.500000,0.000144
13.503906,0.000157
13.507812,0.000172
13.511719,0.000189
13.515625,0.000206
13.519531,0.000223
13.523438,0.000240
13.527344,0.000257
13.531250,0.000273
13.535156,0.000288
13.539062,0.000302
13.542969,0.000314
13.546875,0.000324
13.550781,0.000332
13.554688,0.000339
13.558594,0.000342
13.562500,0.000344
13.566406,0.000343
13.570312,0.000339
13.574219,0.000333
13.578125,0.000324
13.582031,0.000313
13.585938,0.000300
13.589844,0.000285
13.593750,0.000269
13.597656,0.000252
13.601562,0.000235
13.605469,0.000218
13.609375,0.000201
13.613281,0.000185
13.617188,0.000169
13.621094,0.000154
13.625000,0.000140
13.628906,0.000127
13.632812,0.000116
13.636719,0.000105
13.640625,0.000096
13.644531,0.000088
13.648438,0.000082
13.652344,0.000076
13.656250,0.000071
13.660156,0.000069
13.664062,0.000068
13.667969,0.000067
13.671875,0.000065
13.675781,0.000060
13.679688,0.000052
13.683594,0.000040
13.687500,0.000024
13.691406,0.000004
13.695312,-0.000018
13.699219,-0.000042
13.703125,-0.000066
13.707031,-0.000089
13.710938,-0.000107
13.714844,-0.000119
13.718750,-0.000115
13.722656,-0.000086
13.726562,-0.000026
13.730469,0.000068
13.734375,0.000194
13.738281,0.000350
13.742188,0.000526
13.746094,0.000712
13.750000,0.000893
13.753906,0.001049
13.757812,0.001157
13.761719,0.001200
13.765625,0.001172
13.769531,0.001075
13.773438,0.000922
13.777344,0.000733
13.781250,0.000530
13.785156,0.000333
13.789062,0.000155
13.792969,0.000009
13.796875,-0.000102
13.800781,-0.000177
13.804688,-0.000217
13.808594,-0.000227
13.812500,-0.000214
13.816406,-0.000185
13.820312,-0.000146
13.824219,-0.000103
13.828125,-0.000063
13.832031,-0.000029
13.835938,-0.000003
13.839844,0.000017
13.843750,0.000030
13.847656,0.000039
13.851562,0.000045
13.855469,0.000049
13.859375,0.000052
13.863281,0.000054
13.867188,0.000056
13.871094,0.000058
13.875000,0.000061
13.878906,0.000064
13.882812,0.000067
13.886719,0.000070
13.890625,0.000074
13.894531,0.000079
13.898438,0.000083
13.902344,0.000089
13.906250,0.000095
13.910156,0.000101
13.914062,0.000108
13.917969,0.000116
13.921875,0.000124
13.925781,0.000133
13.929688,0.000143
13.933594,0.000153
13.937500,0.000164
13.941406,0.000176
13.945312,0.000189
13.949219,0.000202
13.953125,0.000216
13.957031,0.000230
13.960938,0.000245
13.964844,0.000260
13.968750,0.000276
13.972656,0.000292
13.976562,0.000309
13.980469,0.000325
13.984375,0.000341
13.988281,0.000357
13.992188,0.000373
13.996094,0.000388
14.000000,0.000402
14.003906,0.000416
14.007812,0.000429
14.011719,0.000441
14.015625,0.000452
14.019531,0.000462
14.023438,0.000471
14.027344,0.000478
14.031250,0.000483
14.035156,0.000487
14.039062,0.000490
14.042969,0.000490
14.046875,0.000489
14.050781,0.000486
14.054688,0.000482
14.058594,0.000476
14.062500,0.000468
14.066406,0.000459
14.070312,0.000449
14.074219,0.000437
14.078125,0.000424
14.082031,0.000410
14.085938,0.000395
14.089844,0.000379
14.093750,0.000363
14.097656,0.000346
14.101562,0.000328
14.105469,0.000310
14.109375,0.000292
14.113281,0.000275
14.117188,0.000257
14.121094,0.000240
14.125000,0.000223
14.128906,0.000206
14.132812,0.000190
14.136719,0.000174
14.140625,0.000160
14.144531,0.000146
14.148438,0.000132
14.152344,0.000120
14.156250,0.000108
14.160156,0.000097
14.164062,0.000087
14.167969,0.000077
14.171875,0.000069
14.175781,0.000061
14.179688,0.000054
14.183594,0.000047
14.187500,0.000041
14.191406,0.000036
14.195312,0.000032
14.199219,0.000027
14.203125,0.000024
14.207031,0.000021
14.210938,0.000018
14.214844,0.000015
14.218750,0.000013
14.222656,0.000011
14.226562,0.000010
14.230469,0.000009
14.234375,0.000008
14.238281,0.000007
14.242188,0.000006
14.246094,0.000005
14.250000,0.000005
14.253906,0.000005
14.257812,0.000004
14.261719,0.000004
14.265625,0.000004
14.269531,0.000004
14.273438,0.000004
14.277344,0.000005
14.281250,0.000005
14.285156,0.000005
14.289062,0.000005
14.292969,0.000006
14.296875,0.000006
14.300781,0.000006
14.304688,0.000006
14.308594,0.000007
14.312500,0.000007
14.316406,0.000007
14.320312,0.000007
14.324219,0.000007
14.328125,0.000008
14.332031,0.000008
14.335938,0.000008
14.339844,0.000008
14.343750,0.000008
14.347656,0.000008
14.351562,0.000009
14.355469,0.000009
14.359375,0.000009
14.363281,0.000009
14.367188,0.000009
14.371094,0.000010
14.375000,0.000010
14.378906,0.000010
14.382812,0.000010
14.386719,0.000010
14.390625,0.000010
14.394531,0.000010
14.398438,0.000010
14.402344,0.000011
14.406250,0.000011
14.410156,0.000011
14.414062,0.000011
14.417969,0.000011
14.421875,0.000011
14.425781,0.000011
14.429688,0.000011
14.433594,0.000012
14.437500,0.000012
14.441406,0.000012
14.445312,0.000013
14.449219,0.000013
14.453125,0.000013
14.457031,0.000014
14.460938,0.000014
14.464844,0.000015
14.468750,0.000016
14.472656,0.000018
14.476562,0.000020
14.480469,0.000022
14.484375,0.000026
14.488281,0.000030
14.492188,0.000035
14.496094,0.000040
14.500000,0.000047
14.503906,0.000054
14.507812,0.000063
14.511719,0.000072
14.515625,0.000082
14.519531,0.000094
14.523438,0.000106
14.527344,0.000120
14.531250,0.000135
14.535156,0.000151
14.539062,0.000167
14.542969,0.000184
14.546875,0.000201
14.550781,0.000217
14.554688,0.000232
14.558594,0.000246
14.562500,0.000258
14.566406,0.000269
14.570312,0.000278
14.574219,0.000285
14.578125,0.000289
14.582031,0.000291
14.585938,0.000291
14.589844,0.000288
14.593750,0.000282
14.597656,0.000273
14.601562,0.000262
14.605469,0.000249
14.609375,0.000234
14.613281,0.000218
14.617188,0.000201
14.621094,0.000184
14.625000,0.000167
14.628906,0.000150
14.632812,0.000133
14.636719,0.000116
14.640625,0.000101
14.644531,0.000086
14.648438,0.000073
14.652344,0.000060
14.656250,0.000049
14.660156,0.000039
14.664062,0.000030
14.667969,0.000024
14.671875,0.000021
14.675781,0.000018
14.679688,0.000016
14.683594,0.000013
14.687500,0.000008
14.691406,0.000001
14.695312,-0.000008
14.699219,-0.000020
14.703125,-0.000034
14.707031,-0.000051
14.710938,-0.000071
14.714844,-0.000092
14.718750,-0.000113
14.722656,-0.000135
14.726562,-0.000156
14.730469,-0.000174
14.734375,-0.000188
14.738281,-0.000188
14.742188,-0.000165
14.746094,-0.000113
14.750000,-0.000029
14.753906,0.000087
14.757812,0.000233
14.761719,0.000403
14.765625,0.000587
14.769531,0.000772
14.773438,0.000935
14.777344,0.001055
14.781250,0.001114
14.785156,0.001099
14.789062,0.000999
14.792969,0.000834
14.796875,0.000635
14.800781,0.000435
14.804688,0.000259
14.808594,0.000123
14.812500,0.000033
14.816406,-0.000014
14.820312,-0.000023
14.824219,-0.000003
14.828125,0.000033
14.832031,0.000074
14.835938,0.000111
14.839844,0.000141
14.843750,0.000161
14.847656,0.000173
14.851562,0.000180
14.855469,0.000184
14.859375,0.000186
14.863281,0.000187
14.867188,0.000189
14.871094,0.000190
14.875000,0.000192
14.878906,0.000194
14.882812,0.000196
14.886719,0.000199
14.890625,0.000203
14.894531,0.000207
14.898438,0.000212
14.902344,0.000218
14.906250,0.000225
14.910156,0.000232
14.914062,0.000241
14.917969,0.000250
14.921875,0.000260
14.925781,0.000271
14.929688,0.000283
14.933594,0.000296
14.937500,0.000310
14.941406,0.000324
14.945312,0.000339
14.949219,0.000354
14.953125,0.000369
14.957031,0.000385
14.960938,0.000400
14.964844,0.000415
14.968750,0.000430
14.972656,0.000444
14.976562,0.000457
14.980469,0.000469
14.984375,0.000479
14.988281,0.000488
14.992188,0.000495
14.996094,0.000500
15.000000,0.000503
15.003906,0.000505
15.007812,0.000504
15.011719,0.000500
15.015625,0.000495
15.019531,0.000488
15.023438,0.000479
15.027344,0.000468
15.031250,0.000455
15.035156,0.000441
15.039062,0.000426
15.042969,0.000410
15.046875,0.000392
15.050781,0.000374
15.054688,0.000356
15.058594,0.000338
15.062500,0.000320
15.066406,0.000302
15.070312,0.000284
15.074219,0.000267
15.078125,0.000250
15.082031,0.000235
15.085938,0.000220
15.089844,0.000206
15.093750,0.000193
15.097656,0.000181
15.101562,0.000170
15.105469,0.000160
15.109375,0.000151
15.113281,0.000143
15.117188,0.000136
15.121094,0.000130
15.125000,0.000124
15.128906,0.000119
15.132812,0.000115
15.136719,0.000111
15.140625,0.000107
15.144531,0.000105
15.148438,0.000102
15.152344,0.000100
15.156250,0.000098
15.160156,0.000097
15.164062,0.000095
15.167969,0.000094
15.171875,0.000093
15.175781,0.000092
15.179688,0.000092
15.183594,0.000091
15.187500,0.000090
15.191406,0.000090
15.195312,0.000090
15.199219,0.000089
15.203125,0.000089
15.207031,0.000089
15.210938,0.000088
15.214844,0.000088
15.218750,0.000088
15.222656,0.000087
15.226562,0.000087
15.230469,0.000087
15.234375,0.000086
15.238281,0.000086
15.242188,0.000086
15.246094,0.000085
15.250000,0.000085
15.253906,0.000085
15.257812,0.000084
15.261719,0.000084
15.265625,0.000084
15.269531,0.000083
15.273438,0.000083
15.277344,0.000083
15.281250,0.000083
15.285156,0.000082
15.289062,0.000082
15.292969,0.000082
15.296875,0.000081
15.300781,0.000081
15.304688,0.000081
15.308594,0.000081
15.312500,0.000080
15.316406,0.000080
15.320312,0.000080
15.324219,0.000080
15.328125,0.000080
15.332031,0.000080
15.335938,0.000080
15.339844,0.000081
15.343750,0.000082
15.347656,0.000083
15.351562,0.000085
15.355469,0.000088
15.359375,0.000091
15.363281,0.000096
15.367188,0.000102
15.371094,0.000109
15.375000,0.000117
15.378906,0.000126
15.382812,0.000137
15.386719,0.000150
15.390625,0.000163
15.394531,0.000178
15.398438,0.000195
15.402344,0.000211
15.406250,0.000227
15.410156,0.000243
15.414062,0.000257
15.417969,0.000270
15.421875,0.000280
15.425781,0.000288
15.429688,0.000293
15.433594,0.000295
15.437500,0.000294
15.441406,0.000289
15.445312,0.000281
15.449219,0.000270
15.453125,0.000256
15.457031,0.000240
15.460938,0.000224
15.464844,0.000207
15.468750,0.000189
15.472656,0.000172
15.476562,0.000156
15.480469,0.000140
15.484375,0.000126
15.488281,0.000113
15.492188,0.000101
15.496094,0.000091
15.500000,0.000083
15.503906,0.000076
15.507812,0.000070
15.511719,0.000065
15.515625,0.000062
15.519531,0.000058
15.523438,0.000054
15.527344,0.000048
15.531250,0.000039
15.535156,0.000025
15.539062,0.000006
15.542969,-0.000019
15.546875,-0.000046
15.550781,-0.000069
15.554688,-0.000081
15.558594,-0.000072
15.562500,-0.000032
15.566406,0.000046
15.570312,0.000165
15.574219,0.000320
15.578125,0.000502
15.582031,0.000688
15.585938,0.000844
15.589844,0.000939
15.593750,0.000936
15.597656,0.000779
15.601562,0.000579
15.605469,0.000414
15.609375,0.000326
15.613281,0.000311
15.617188,0.000341
15.621094,0.000379
15.625000,0.000405
15.628906,0.000417
15.632812,0.000420
15.636719,0.000421
15.640625,0.000422
15.644531,0.000423
15.648438,0.000425
15.652344,0.000428
15.656250,0.000432
15.660156,0.000437
15.664062,0.000444
15.667969,0.000453
15.671875,0.000464
15.675781,0.000476
15.679688,0.000489
15.683594,0.000503
15.687500,0.000519
15.691406,0.000534
15.695312,0.000548
15.699219,0.000562
15.703125,0.000573
15.707031,0.000582
15.710938,0.000587
15.714844,0.000589
15.718750,0.000587
15.722656,0.000581
15.726562,0.000572
15.730469,0.000560
15.734375,0.000544
15.738281,0.000527
15.742188,0.000509
15.746094,0.000491
15.750000,0.000472
15.753906,0.000454
15.757812,0.000438
15.761719,0.000423
15.765625,0.000409
15.769531,0.000397
15.773438,0.000387
15.777344,0.000379
15.781250,0.000372
15.785156,0.000367
15.789062,0.000362
15.792969,0.000358
15.796875,0.000355
15.800781,0.000353
15.804688,0.000351
15.808594,0.000349
15.812500,0.000348
15.816406,0.000347
15.820312,0.000346
15.824219,0.000344
15.828125,0.000343
15.832031,0.000342
15.835938,0.000341
15.839844,0.000340
15.843750,0.000339
15.847656,0.000338
15.851562,0.000337
15.855469,0.000336
15.859375,0.000336
15.863281,0.000335
15.867188,0.000334
15.871094,0.000333
15.875000,0.000332
15.878906,0.000331
15.882812,0.000330
15.886719,0.000329
15.890625,0.000328
15.894531,0.000327
15.898438,0.000327
15.902344,0.000327
15.906250,0.000328
15.910156,0.000330
15.914062,0.000334
15.917969,0.000339
15.921875,0.000346
15.925781,0.000356
15.929688,0.000369
15.933594,0.000385
15.937500,0.000401
15.941406,0.000416
15.945312,0.000428
15.949219,0.000436
15.953125,0.000440
15.957031,0.000437
15.960938,0.000429
15.964844,0.000417
15.968750,0.000400
15.972656,0.000382
15.976562,0.000364
15.980469,0.000348
15.984375,0.000334
15.988281,0.000323
15.992188,0.000314
15.996094,0.000308
16.000000,0.000304
16.003906,0.000300
16.007812,0.000292
16.011719,0.000273
16.015625,0.000248
16.019531,0.000223
16.023438,0.000220
16.027344,0.000281
16.031250,0.000419
16.035156,0.000601
16.039062,0.000758
